time (s)	magX	magY	magZ
4127.391753	85.109291	515.928162	545.594971
4127.395087	81.485687	515.402100	534.665710
4127.398417	78.271187	515.285217	524.788391
4127.401746	74.296906	515.343689	516.430786
4127.405113	71.140854	513.882507	506.611908
4127.408420	68.569260	513.122803	497.260651
4127.411752	64.594971	512.772095	487.909393
4127.415079	61.789597	511.836884	478.791931
4127.418440	59.568672	511.135590	469.382233
4127.421746	57.055519	509.966644	460.966095
4127.425076	54.600815	508.388672	452.842224
4127.428416	51.561661	506.226166	444.192291
4127.432177	49.340736	505.115692	436.185303
4127.435502	47.178253	503.829895	427.827576
4127.438842	45.191116	502.134979	420.346588
4127.442173	43.203972	500.673859	413.216248
4127.445522	41.275276	498.920502	404.917023
4127.448894	39.405022	496.290436	397.436005
4127.452198	37.593224	494.478668	390.364105
4127.455509	36.482758	491.907074	382.941559
4127.458832	34.320282	490.036835	376.103455
4127.462206	32.800697	487.465240	369.557587
4127.465498	30.638224	485.595001	362.076569
4127.468829	29.936880	483.198700	356.290466
4127.472166	28.358854	480.451782	350.036804
4127.475513	26.780828	477.821716	343.783173
4127.478856	25.144358	474.665680	337.237305
4127.482190	23.800116	472.678558	331.334320
4127.485533	22.163649	470.399200	326.366455
4127.488882	20.877851	468.002899	319.528351
4127.492188	19.533606	465.314423	314.852722
4127.495499	17.546463	462.918182	309.534210
4127.499247	15.909994	460.288147	304.098785
4127.502590	14.156633	458.184113	299.014038
4127.505967	13.163063	456.255402	293.929260
4127.509298	11.468145	453.976013	289.428986
4127.512663	9.305670	450.995300	283.818237
4127.516009	7.669199	449.066650	280.136200
4127.519259	6.208065	447.137939	275.986572
4127.522591	5.039158	444.624756	271.135590
4127.525925	3.110462	442.520752	267.511963
4127.529275	1.357100	440.650513	263.654602
4127.532609	0.188193	438.137329	260.264771
4127.536038	-1.448277	435.390411	255.939804
4127.539342	-2.441847	433.052582	253.251328
4127.542670	-3.376973	431.240784	249.686157
4127.545919	-4.779661	429.604340	246.120987
4127.549268	-6.123905	427.441833	243.315613
4127.552577	-6.942140	425.688446	240.159561
4127.555941	-7.818820	423.584473	237.178833
4127.559281	-8.695499	422.064880	234.256592
4127.562665	-9.572181	419.785492	231.801880
4127.566002	-10.215079	418.265900	228.295135
4127.569260	-11.383986	416.629456	226.249557
4127.573034	-11.851549	413.765625	224.729980
4127.576394	-12.786674	413.064301	221.106369
4127.579785	-14.189363	411.135590	218.476318
4127.582682	-14.773817	409.908234	216.547638
4127.586418	-15.475161	407.979523	214.326691
4127.589778	-15.708942	406.284607	212.865570
4127.593112	-16.351841	405.349487	210.293991
4127.596452	-17.345413	403.479248	208.248383
4127.599812	-17.228521	402.251923	205.969025
4127.603106	-17.929867	400.323212	204.741669
4127.606487	-18.864992	399.271179	202.579193
4127.609793	-19.507891	398.043823	200.182938
4127.613136	-20.559906	396.874939	198.488022
4127.616497	-20.910580	395.063110	196.734665
4127.619816	-21.319696	393.894196	195.974869
4127.623190	-21.845705	392.783722	194.221497
4127.626506	-22.956165	391.731750	192.292816
4127.629738	-23.482174	390.679718	191.123917
4127.633063	-24.300409	389.393890	189.896561
4127.636389	-25.177090	389.686127	187.967850
4127.639803	-26.053770	388.225006	187.383392
4127.643133	-26.579779	386.880768	185.922272
4127.646455	-27.807131	386.004089	185.513153
4127.649813	-28.450029	385.711853	184.344238
4127.653163	-29.969610	384.776733	183.058441
4127.656482	-30.904734	383.783142	182.707764
4127.659863	-31.664524	383.900055	181.947983
4127.663152	-32.950321	383.374054	181.772644
4127.666527	-33.417885	382.438934	180.603745
4127.669829	-34.879021	381.737579	180.077744
4127.673637	-35.521919	381.503784	179.727066
4127.676972	-35.697254	381.153107	180.779083
4127.680261	-36.983051	380.451782	179.551727
4127.683610	-37.684395	380.627106	179.785507
4127.686922	-38.561077	379.925781	178.850388
4127.690306	-39.379311	380.393341	179.727066
4127.693609	-40.022209	380.451782	179.317947
4127.696978	-40.431328	380.159546	179.434830
4127.700334	-41.132671	379.750427	180.136169
4127.703670	-41.366455	380.510223	180.895966
4127.706969	-41.775570	380.510223	181.947983
4127.710400	-42.067795	380.685547	180.954422
4127.713708	-43.236702	380.977783	182.298660
4127.717048	-43.528931	381.211578	181.889542
4127.720407	-44.113380	381.503784	182.298660
4127.723721	-44.580948	381.854462	183.233780
4127.727038	-44.639389	382.731140	184.461136
4127.730343	-45.574516	382.731140	184.285797
4127.733690	-46.275864	383.666290	185.279358
4127.737135	-46.860313	383.900055	186.740494
4127.740467	-47.094101	384.250702	186.623611
4127.743765	-47.912331	385.068970	188.084747
4127.747110	-48.789009	385.770294	189.312088
4127.750434	-49.431915	386.237854	189.604324
4127.753772	-50.542374	386.939209	192.059036
4127.757116	-51.009933	387.991211	192.000580
4127.760463	-52.061951	388.458771	192.760376
4127.763786	-53.055519	389.160126	194.922852
4127.767091	-53.581528	389.978363	195.507309
4127.770410	-54.691994	391.147278	197.436005
4127.773761	-56.153130	392.257721	199.247803
4127.777542	-57.205147	392.842194	201.001175
4127.780519	-58.432495	393.485077	202.053177
4127.784235	-59.192284	394.887787	204.274109
4127.787566	-60.127411	396.524231	205.150787
4127.790889	-61.413208	397.751587	207.897720
4127.794192	-62.932785	398.511383	210.060196
4127.797638	-64.160141	399.738739	211.462891
4127.800970	-65.504387	401.784332	214.969620
4127.804291	-65.913498	402.894775	217.424301
4127.807682	-67.374634	404.063690	219.236115
4127.811010	-68.426651	406.109283	222.567490
4127.814305	-70.238457	407.687317	224.437744
4127.817661	-71.465805	409.031525	227.886047
4127.820985	-71.699593	410.668030	230.632950
4127.824310	-73.394508	412.304504	234.607254
4127.827626	-74.154297	414.174744	237.412628
4127.830965	-75.849213	415.986542	240.802460
4127.834345	-77.193459	417.739899	244.133835
4127.837732	-77.836349	420.311493	246.705444
4127.841026	-79.005257	422.123291	250.445938
4127.844336	-79.706604	423.350677	253.952652
4127.847643	-80.875511	426.506714	258.803619
4127.851053	-81.869080	427.734100	261.784363
4127.854358	-82.745758	430.130341	265.933960
4127.857714	-84.323784	432.000580	269.732910
4127.861068	-84.966682	433.929260	274.116302
4127.864394	-86.427818	436.033295	279.142609
4127.867711	-87.596725	438.020477	282.415527
4127.871021	-88.590302	440.241394	287.617187
4127.874363	-89.876099	442.286957	291.942139
4127.877733	-91.395676	444.040283	296.091766
4127.881102	-92.389244	446.611938	301.585632
4127.884413	-93.908821	448.248383	305.735229
4127.887718	-95.136177	450.352417	311.053772
4127.891015	-97.006424	452.281097	315.670959
4127.894444	-98.175331	454.794250	320.638794
4127.897788	-100.630035	456.196960	326.366455
4127.901148	-101.857391	458.008759	331.801880
4127.904511	-103.961426	460.463470	337.938629
4127.907788	-106.240799	461.807739	343.607849
4127.911579	-108.344826	464.320862	349.160126
4127.915032	-109.864403	466.132629	355.238464
4127.918396	-112.143768	467.886017	361.667450
4127.921696	-114.949150	470.223846	368.739319
4127.925028	-116.877853	470.983643	375.343658
4127.928367	-119.157219	472.327850	382.123322
4127.931724	-121.495033	474.899475	389.779663
4127.935031	-123.774399	476.302155	397.202209
4127.938367	-125.761543	478.815308	404.449432
4127.941695	-127.982460	480.042633	411.755127
4127.945029	-130.320282	481.620697	419.820587
4127.948363	-132.132095	483.490936	428.002899
4127.951696	-134.879013	484.718262	436.652832
4127.955028	-136.924606	486.646973	445.244293
4127.958358	-139.262421	487.406769	453.309753
4127.961716	-141.308014	489.101685	462.427216
4127.965053	-143.762711	489.919891	471.427795
4127.968358	-145.223846	490.971954	480.545319
4127.971698	-147.444778	491.907074	491.708344
4127.975030	-148.905899	492.959076	501.527191
4127.978353	-150.893051	493.485077	511.170654
4127.981691	-152.763306	493.426666	521.457031
4127.985025	-155.334900	493.894196	531.977234
4127.988352	-156.912918	494.186432	542.964905
4127.991687	-158.666290	494.361786	552.842224
4127.995027	-161.062546	494.069519	563.362366
4127.998353	-163.283463	493.835785	573.414978
4128.001690	-165.679718	493.017517	584.811829
4128.005041	-167.433090	492.023956	595.974854
4128.008774	-169.712448	490.621277	605.793701
4128.012131	-171.758041	489.335480	618.008789
4128.015474	-174.271194	487.640564	629.171814
4128.018819	-176.667465	486.471649	640.685547
4128.022122	-179.706619	483.607819	651.497986
4128.025448	-182.278214	481.386902	663.303955
4128.028784	-184.849808	477.646393	674.233154
4128.032113	-187.129166	474.373444	686.974243
4128.035465	-189.642319	471.275848	699.306213
4128.038779	-192.856812	467.944489	711.404480
4128.042108	-196.421982	464.145508	723.444214
4128.045433	-199.052017	459.820557	734.841064
4128.048811	-201.798965	455.320251	747.465210
4128.052129	-205.188782	450.527771	760.381653
4128.055531	-207.701935	444.741669	773.005859
4128.058783	-210.331970	438.955597	785.454712
4128.062114	-213.195801	432.877258	798.838684
4128.065444	-216.059631	426.740509	810.410889
4128.068775	-218.981888	420.019287	824.554687
4128.072114	-221.202820	412.070709	837.938599
4128.075437	-224.066635	404.706573	850.153687
4128.078794	-225.761551	396.465790	864.297546
4128.082553	-228.040924	388.225006	877.798401
4128.085936	-230.554077	379.399750	892.117432
4128.089277	-232.307434	370.340729	904.507874
4128.092550	-233.768555	360.872589	918.067200
4128.095863	-235.697266	349.651062	931.100525
4128.099195	-236.924622	340.299805	943.607849
4128.102560	-238.327301	329.487427	956.816528
4128.105880	-239.496201	318.149017	971.544678
4128.109280	-240.080658	306.518402	983.642883
4128.112632	-241.424911	294.186432	996.559387
4128.115939	-242.535370	282.438934	1009.358826
4128.119196	-243.470490	270.223816	1019.119202
4128.122555	-243.353592	257.891876	1031.275879
4128.125859	-244.288727	244.449432	1042.789673
4128.129215	-244.464066	231.299240	1053.134521
4128.132553	-244.814728	218.441269	1063.362427
4128.135946	-244.990082	205.232605	1074.350220
4128.139294	-245.223846	190.387497	1084.636475
4128.142619	-245.691406	176.185272	1093.637085
4128.145866	-246.509644	161.164825	1101.877930
4128.149630	-245.925201	146.436600	1111.930542
4128.152582	-246.801865	131.649918	1118.827026
4128.156384	-247.386337	115.694328	1126.600220
4128.159324	-247.269440	100.615425	1132.854004
4128.163044	-247.503220	84.309174	1139.282837
4128.166371	-247.444763	69.347160	1147.172974
4128.169710	-247.970795	52.398010	1151.965576
4128.173025	-247.444763	36.442432	1157.693237
4128.176384	-247.152542	20.019287	1162.368896
4128.179717	-246.568100	3.946816	1165.174194
4128.183066	-246.392776	-13.703681	1168.914673
4128.186376	-246.158981	-30.419050	1172.538330
4128.189720	-245.399185	-46.199299	1175.577515
4128.193097	-244.697845	-62.563995	1177.506104
4128.196482	-243.704269	-79.337814	1178.558228
4128.199794	-242.009354	-95.293396	1178.616577
4128.203167	-240.431320	-111.190536	1180.194702
4128.206483	-238.677979	-128.782578	1180.253174
4128.209824	-236.983047	-144.504379	1179.084229
4128.213141	-234.762131	-160.576859	1177.389282
4128.216518	-232.541214	-175.538864	1176.161987
4128.219877	-229.735825	-191.611343	1172.655151
4128.223205	-226.521347	-206.164230	1170.375854
4128.226510	-223.365295	-221.243134	1166.518555
4128.229844	-220.267700	-235.796005	1161.842773
4128.233173	-217.170090	-249.764450	1158.745239
4128.236571	-213.663361	-263.382233	1152.900635
4128.239862	-209.572189	-277.467560	1147.640625
4128.243186	-205.948578	-290.500885	1141.503906
4128.246555	-202.149628	-303.358856	1133.789062
4128.249895	-198.467575	-316.099945	1125.723633
4128.253203	-194.668625	-327.321472	1117.716553
4128.256557	-190.635895	-339.361206	1110.878418
4128.259904	-187.012283	-350.524261	1102.111694
4128.263227	-182.511993	-361.336670	1093.344849
4128.266980	-179.414383	-371.681488	1084.052124
4128.270296	-175.147873	-381.967865	1073.473389
4128.273663	-172.342499	-391.552917	1064.005249
4128.276965	-167.608429	-401.021057	1052.842285
4128.280370	-164.686142	-409.904755	1042.497437
4128.283692	-160.653427	-417.853302	1031.451172
4128.287022	-157.497375	-425.626556	1019.177673
4128.290374	-154.107544	-434.101105	1007.488586
4128.293731	-150.951492	-440.997650	994.513733
4128.297076	-148.555237	-447.777313	981.889587
4128.300424	-145.282303	-453.621857	969.615967
4128.303767	-142.067810	-460.109283	956.641113
4128.307153	-138.444183	-466.070740	942.964966
4128.310461	-135.931046	-471.389252	929.113403
4128.313818	-133.125671	-477.584473	916.723022
4128.317162	-129.911163	-482.201630	902.520813
4128.320473	-126.170654	-487.227966	888.435364
4128.323784	-123.248398	-491.085327	875.285156
4128.327103	-120.209229	-495.468750	861.550537
4128.330432	-117.462303	-499.910583	847.582092
4128.333842	-114.364693	-501.663971	833.672058
4128.337169	-110.916420	-504.527771	819.937439
4128.340501	-107.409706	-507.625397	806.144348
4128.343813	-104.779655	-509.904755	792.468140
4128.347141	-100.630035	-511.658112	777.798340
4128.350508	-97.883110	-512.826965	764.531250
4128.353784	-94.317940	-514.814087	751.030396
4128.357177	-90.635880	-515.398560	737.529480
4128.360533	-87.362946	-517.268799	725.139099
4128.363866	-83.973114	-517.385742	713.040894
4128.367640	-80.700172	-518.320862	699.481628
4128.370989	-77.427238	-517.619507	687.734070
4128.374318	-73.862068	-518.554626	675.869690
4128.377659	-70.063118	-518.671509	663.187012
4128.380964	-67.374634	-517.561096	651.497986
4128.384262	-64.277031	-516.625977	639.516663
4128.387589	-60.419640	-516.509033	627.710693
4128.390893	-59.016953	-516.684387	617.190552
4128.394326	-56.036240	-515.047913	605.443054
4128.397635	-53.055519	-513.703674	594.513733
4128.400984	-50.600815	-511.541229	583.116882
4128.404369	-48.496788	-510.606110	573.181213
4128.407705	-45.632965	-509.729401	562.602539
4128.410998	-43.821159	-508.209839	552.082397
4128.414349	-42.184685	-505.755127	541.679138
4128.417667	-39.788429	-504.644684	531.451233
4128.420989	-37.684395	-502.599091	521.749268
4128.424311	-35.638809	-500.728851	512.398071
4128.427659	-34.645237	-497.865021	502.637665
4128.431037	-33.008766	-496.170105	493.987732
4128.434401	-31.080070	-494.416718	482.941559
4128.437715	-29.735828	-492.488068	474.057861
4128.441072	-27.807131	-489.974884	465.758636
4128.444383	-26.930450	-487.637054	457.284058
4128.447750	-25.703098	-485.416138	448.225006
4128.451070	-23.832848	-482.786072	439.867340
4128.454439	-22.839275	-480.214508	431.626526
4128.457813	-21.319696	-477.350677	424.730011
4128.461140	-20.033899	-474.369965	416.021606
4128.464463	-18.338984	-472.382843	408.423737
4128.467808	-17.579193	-469.109863	400.884277
4128.471160	-16.118059	-466.070740	394.922852
4128.474965	-14.072473	-464.551178	386.798950
4128.478307	-12.786674	-461.511993	379.960815
4128.481642	-10.974869	-459.057281	373.473419
4128.484990	-9.805962	-455.959717	365.641724
4128.488308	-7.935711	-454.264801	359.563416
4128.491639	-6.708358	-450.699615	353.952667
4128.494977	-5.364115	-448.303314	347.523682
4128.498304	-4.019872	-446.257721	342.205139
4128.501678	-2.208066	-443.277039	336.769745
4128.504980	-1.272941	-440.763916	330.866760
4128.508306	0.421975	-438.426056	325.898895
4128.511638	1.473991	-435.796021	319.469910
4128.515007	2.818233	-433.458221	314.677399
4128.518304	4.805376	-431.295746	309.826416
4128.521636	5.448275	-428.899475	305.092346
4128.524975	6.734072	-426.269440	300.299805
4128.528330	7.844536	-423.756317	295.215088
4128.531637	9.130333	-422.002930	290.831665
4128.534968	10.182348	-419.256012	286.565155
4128.538301	10.533020	-416.392181	283.642883
4128.541638	11.468145	-414.463470	279.610168
4128.544966	12.578609	-412.417877	274.350067
4128.548300	13.221508	-410.430756	271.194031
4128.551634	13.630625	-408.969604	268.213318
4128.555395	14.331968	-406.398010	264.589722
4128.558755	14.565750	-405.170685	261.842804
4128.562077	15.676212	-403.125092	258.336060
4128.565416	15.267094	-401.021057	255.413803
4128.568729	16.260666	-398.975464	252.140869
4128.572078	16.669783	-397.338989	249.277023
4128.575384	17.780245	-395.585632	247.114548
4128.578734	17.838690	-394.007599	244.192291
4128.582059	19.124491	-392.254272	240.802460
4128.585392	18.656923	-390.325562	238.990646
4128.588747	19.708944	-388.922852	235.367035
4128.592088	19.884279	-386.818848	233.379898
4128.595410	20.059614	-385.649933	230.925186
4128.598746	20.994741	-383.779663	228.412033
4128.602087	21.345411	-382.201660	225.431335
4128.605385	22.338984	-381.441864	224.028641
4128.608720	22.572763	-379.337799	221.924591
4128.612059	24.092344	-377.935120	219.586792
4128.615419	24.384569	-376.883118	217.716537
4128.619161	24.910578	-374.954407	214.794266
4128.622504	25.670366	-373.610199	213.859131
4128.625912	26.430155	-372.207489	211.988892
4128.629239	27.189947	-371.389252	210.352432
4128.632184	28.709528	-369.811218	208.014618
4128.635815	29.177092	-369.343658	207.196381
4128.639160	29.995325	-368.174774	206.085922
4128.642469	30.930449	-366.479858	204.332550
4128.645834	31.456457	-366.246063	203.163635
4128.649167	32.800697	-364.784943	201.234955
4128.652570	33.092926	-363.616028	200.884277
4128.655888	33.794273	-363.323792	200.475159
4128.659252	34.261833	-362.856232	199.364700
4128.662472	35.080070	-362.505554	198.078903
4128.665810	36.132088	-361.745758	197.962006
4128.669143	36.599648	-360.284637	197.845123
4128.672494	36.774986	-359.758636	196.676208
4128.675831	37.710114	-359.758636	196.208649
4128.679231	37.710114	-359.641754	195.741089
4128.682564	38.060783	-358.706635	195.565750
4128.686227	38.820572	-358.005249	195.039749
4128.689590	38.995911	-358.005249	195.390411
4128.692517	39.872589	-357.946838	194.396851
4128.696312	40.164818	-357.713043	194.104614
4128.699239	41.567505	-356.777924	194.981293
4128.702591	41.158386	-356.719482	194.689072
4128.706310	41.976624	-356.602570	195.390411
4128.709663	42.385742	-356.135010	195.215073
4128.713021	42.502632	-357.128601	195.916428
4128.716391	43.087082	-356.485687	196.091751
4128.719807	43.788429	-357.362366	196.325531
4128.722715	44.197548	-356.427246	195.974869
4128.726329	45.308006	-356.836365	196.442429
4128.729672	45.074226	-358.122162	196.442429
4128.733004	46.126244	-358.355957	196.968445
4128.736358	47.178253	-358.005249	198.020447
4128.739715	48.054939	-358.063721	197.903564
4128.743058	49.106956	-358.122162	198.897141
4128.746455	49.516068	-358.823517	199.598480
4128.749765	50.568085	-359.174194	199.832260
4128.753112	51.327881	-358.414398	199.773819
4128.756485	51.970779	-359.291077	201.293396
4128.759777	53.256577	-359.466400	201.936295
4128.763172	53.724144	-360.050842	202.637650
4128.766474	55.535942	-360.927521	204.098770
4128.769786	56.178848	-361.336670	205.150787
4128.773155	57.230858	-361.453522	206.611923
4128.776500	58.224426	-362.213318	206.787262
4128.779861	58.516655	-362.973114	208.248383
4128.783163	59.451782	-364.375793	210.293991
4128.786474	61.029808	-364.375793	211.638214
4128.789841	62.374054	-365.369385	213.800705
4128.793187	63.250732	-365.778503	215.495621
4128.796496	64.185860	-366.888947	217.190536
4128.799833	65.646988	-367.531860	218.885452
4128.803560	66.582115	-368.408539	222.216827
4128.806919	67.517242	-369.869690	223.385742
4128.810242	67.984802	-371.097015	225.548233
4128.813580	69.036827	-371.856812	227.535355
4128.816947	69.913506	-373.434845	229.580963
4128.820254	71.199303	-375.129761	232.853897
4128.823629	72.075981	-376.415558	235.542374
4128.826949	72.718880	-377.759796	237.938629
4128.830286	73.420219	-378.870239	241.036224
4128.833624	74.004677	-380.506744	244.835190
4128.837014	75.290474	-382.435425	246.413208
4128.840337	76.693161	-383.487427	249.101700
4128.843701	77.628288	-385.299255	252.433075
4128.847029	79.030983	-386.585052	255.881363
4128.850414	79.849213	-387.286407	259.329651
4128.853709	81.018120	-389.332001	262.251923
4128.857090	81.894798	-391.026917	266.226166
4128.860412	83.063705	-392.488037	269.966675
