time (s)	magX	magY	magZ
666.738712	-280.326721	-489.486816	-727.047913
666.742106	-276.235504	-490.889526	-715.183472
666.745447	-271.852112	-493.227325	-704.254272
666.748819	-267.702484	-495.272949	-691.863831
666.752037	-263.085327	-496.617157	-680.057861
666.755381	-258.760376	-498.896545	-669.070129
666.758705	-255.019882	-499.656311	-657.556396
666.762052	-251.805374	-501.409698	-645.399780
666.765383	-247.129745	-501.643494	-632.892456
666.768777	-243.097015	-502.344818	-620.911194
666.772124	-239.590317	-502.578613	-610.624817
666.775410	-236.492706	-502.461700	-600.163086
666.778706	-232.635300	-502.695496	-588.240173
666.782027	-229.713028	-501.935699	-577.252502
666.785388	-225.095871	-502.461700	-565.680298
666.788720	-221.764465	-500.942108	-555.510803
666.792049	-217.965530	-501.000580	-545.867371
666.795431	-215.627716	-499.013458	-535.464050
666.798802	-212.004105	-498.838074	-525.937439
666.802465	-208.848053	-498.312073	-516.060181
666.805837	-206.334900	-496.441833	-506.650513
666.809204	-202.769730	-494.980713	-496.480988
666.812546	-199.905914	-493.811768	-488.298645
666.815900	-197.042084	-491.824646	-478.830536
666.819194	-193.710693	-491.357056	-468.076569
666.822498	-192.191116	-488.084167	-460.186432
666.825861	-189.794861	-487.032166	-451.536499
666.829249	-186.989487	-484.752777	-443.821777
666.832573	-184.943909	-483.291656	-435.113373
666.835870	-182.313858	-481.421356	-426.697266
666.839197	-179.566925	-479.142029	-419.157806
666.842505	-177.112228	-476.921112	-411.676788
666.845826	-174.599075	-473.472809	-403.319122
666.849165	-171.852127	-471.661011	-397.007050
666.852518	-170.040329	-469.556976	-389.759766
666.855903	-167.527191	-467.920532	-382.278778
666.859242	-164.897141	-465.232025	-375.440674
666.862534	-162.968445	-463.595551	-368.485687
666.865865	-160.396851	-460.965515	-362.641144
666.869207	-158.234375	-458.803009	-355.569275
666.872584	-156.013458	-456.348297	-349.490967
666.875894	-153.792526	-454.068970	-343.471069
666.879250	-151.162476	-452.315613	-337.158966
666.882580	-148.824661	-450.036224	-331.431305
666.885960	-146.954422	-448.224426	-325.995911
666.889264	-144.967285	-446.178833	-319.742249
666.892641	-142.804794	-443.665680	-315.008179
666.896039	-140.583862	-441.912292	-308.637634
666.899343	-139.648743	-439.048523	-303.962006
666.902677	-136.492706	-438.054932	-298.701935
666.906035	-135.031570	-435.834015	-294.552307
666.909348	-133.921112	-433.613098	-289.175354
666.912756	-131.291061	-431.918182	-286.077728
666.916120	-129.596146	-429.288116	-281.051422
666.919458	-128.310349	-426.950287	-276.726501
666.922769	-126.264755	-425.430695	-272.693756
666.926130	-125.037399	-423.735840	-269.128601
666.929417	-123.634712	-421.222656	-265.680328
666.932824	-122.524254	-419.235535	-261.004700
666.936143	-121.296898	-417.540619	-257.147278
666.939848	-120.127991	-415.845703	-253.874359
666.943196	-118.900635	-413.449402	-249.666290
666.946493	-117.673294	-411.988281	-246.685547
666.949836	-116.738167	-410.819427	-243.646408
666.953146	-115.569260	-408.832245	-240.315033
666.956496	-115.218582	-406.786652	-237.042068
666.959802	-114.166573	-405.208618	-235.230286
666.963144	-112.822319	-403.104614	-232.717133
666.966405	-111.887199	-401.994171	-229.151962
666.969776	-111.127411	-400.357666	-226.931030
666.973154	-110.659843	-399.247223	-224.710114
666.976459	-109.724724	-397.552307	-222.021637
666.979754	-109.432495	-395.565155	-220.385147
666.983073	-107.796021	-394.630035	-217.638229
666.986386	-107.270020	-393.227356	-216.001755
666.989766	-106.101112	-392.350647	-214.715958
666.993104	-106.627113	-390.363495	-212.378143
666.996849	-105.224426	-389.662170	-209.689667
667.000148	-104.990646	-389.019287	-208.696075
667.003472	-103.704849	-387.032135	-207.176498
667.006767	-102.360603	-386.623016	-205.656937
667.010119	-102.068382	-385.220306	-203.728226
667.013437	-101.016365	-383.642303	-201.039749
667.016751	-100.957916	-383.408539	-199.695496
667.020067	-99.847458	-382.765625	-198.234375
667.023404	-98.795441	-381.947388	-197.299240
667.026696	-98.152542	-381.070709	-195.370560
667.030131	-97.977203	-380.778473	-194.201645
667.033404	-97.334305	-379.668030	-193.441849
667.036685	-96.516068	-379.083557	-192.331390
667.040023	-96.165398	-378.557556	-191.337814
667.043780	-95.405609	-377.856201	-190.344238
667.047143	-94.938042	-377.388641	-190.052017
667.050427	-94.587372	-376.161285	-188.941559
667.053772	-94.470482	-375.985962	-187.538864
667.057069	-93.535355	-375.343079	-187.129745
667.060397	-93.360023	-375.050842	-186.954422
667.063732	-94.002914	-374.933929	-186.837524
667.067048	-92.717117	-374.875488	-186.077744
667.070474	-93.126244	-374.407928	-186.136169
667.073772	-92.366447	-373.765045	-185.259506
667.077085	-92.775566	-374.407928	-186.019287
667.080439	-93.360023	-374.641724	-186.545303
667.083779	-93.184685	-374.115723	-186.486847
667.087070	-92.424896	-374.349518	-186.311523
667.090420	-92.541786	-373.823486	-186.019287
667.093721	-92.483337	-374.407928	-186.662186
667.097072	-93.535355	-374.583282	-187.188202
667.100372	-93.360023	-374.875488	-187.772644
667.103706	-93.769135	-374.933929	-187.421982
667.107061	-93.827583	-375.635284	-188.649338
667.110850	-93.418465	-376.219757	-189.058441
667.114482	-93.944473	-375.869080	-188.941559
667.117815	-94.236702	-376.570435	-189.467560
667.121145	-93.944473	-376.161285	-190.694916
667.124486	-94.704262	-377.563995	-191.396255
667.127811	-95.171822	-378.089996	-191.688492
667.131179	-95.230270	-378.440674	-193.383408
667.134505	-95.580948	-379.025116	-193.675644
667.137807	-94.879601	-379.668030	-193.967865
667.141140	-95.639397	-380.135590	-195.662766
667.144482	-95.639397	-380.603149	-196.364120
667.147822	-95.931618	-381.947388	-197.474579
667.151143	-96.574516	-383.174744	-199.578613
667.154478	-96.340736	-383.876099	-200.163055
667.157813	-95.990067	-384.811218	-201.741074
667.161142	-96.399178	-386.681458	-203.377563
667.164473	-97.100525	-386.506134	-204.780243
667.167814	-96.983635	-387.499695	-206.650497
667.171145	-96.749855	-388.960815	-208.170074
667.174472	-97.334305	-389.720612	-209.923431
667.177812	-98.035652	-390.831055	-210.683228
667.181146	-98.970772	-392.350647	-213.839264
667.184471	-98.386322	-393.811798	-216.118652
667.187804	-98.795441	-394.980713	-218.047333
667.191132	-99.029221	-396.909424	-220.268280
667.194476	-99.672119	-398.896545	-222.372299
667.197805	-100.081238	-399.831665	-224.593216
667.201139	-100.607246	-401.234375	-227.340149
667.204467	-102.009933	-402.870819	-229.853302
667.207822	-102.243713	-404.390411	-232.074234
667.211142	-103.354179	-405.384003	-233.944489
667.214498	-103.704849	-407.780243	-238.035660
667.217798	-104.347748	-409.124512	-240.724136
667.221150	-105.282875	-410.936279	-244.639969
667.224472	-106.510223	-412.923401	-247.562241
667.227803	-107.503799	-413.975464	-250.893646
667.231136	-108.380478	-416.079468	-255.218567
667.234462	-109.374046	-418.417297	-257.614868
667.237803	-110.952072	-420.755066	-261.180023
667.241132	-111.010521	-422.274658	-265.212738
667.244464	-113.114548	-424.320251	-269.829926
667.247800	-113.991226	-426.365845	-273.453552
667.251557	-115.277031	-428.294556	-277.953827
667.254892	-115.861481	-430.398590	-282.161896
667.258284	-117.614845	-432.853302	-285.493286
667.261587	-118.549973	-434.255951	-290.811798
667.264915	-119.601982	-436.593811	-295.195190
667.268228	-121.355347	-439.516052	-299.753967
667.271562	-122.232025	-441.327881	-304.137360
667.274888	-123.810059	-442.847412	-309.514313
667.278227	-124.862068	-445.068390	-313.956177
667.281545	-126.030975	-446.646393	-319.099365
667.284886	-127.550560	-449.802429	-324.125641
667.288214	-129.070129	-451.731140	-330.496185
667.291577	-130.122162	-454.361176	-335.171814
667.294909	-131.057281	-455.763885	-341.133270
667.298249	-132.985977	-458.569275	-346.977783
667.301613	-133.395096	-461.257721	-352.705444
667.304888	-135.323792	-463.420227	-358.783752
667.308239	-136.609589	-465.407349	-365.446533
667.311552	-137.953827	-468.154266	-371.291077
667.314887	-139.648743	-470.667450	-377.603149
667.318220	-141.109879	-472.713013	-384.675049
667.321550	-141.928116	-474.466400	-391.980713
667.324881	-143.798370	-478.265320	-398.818817
667.328241	-146.077744	-480.953827	-406.475159
667.331577	-147.597305	-482.824066	-413.137909
667.334903	-149.467560	-485.337250	-421.320312
667.338244	-151.513153	-486.798370	-428.567505
667.341976	-153.792526	-488.843933	-437.275848
667.345348	-155.662781	-491.298645	-444.639984
667.348630	-157.591476	-492.935120	-452.822296
667.352008	-159.227936	-495.156036	-462.056702
667.355328	-161.916428	-497.961395	-470.239014
667.358712	-164.195801	-499.130310	-481.518982
667.362043	-167.001175	-500.065460	-490.578033
667.365311	-169.280533	-502.637024	-498.059021
667.368653	-171.501465	-504.039734	-508.111633
667.371967	-174.014618	-506.319122	-517.462891
667.375333	-176.644653	-506.962006	-526.872559
667.378650	-179.566925	-507.897125	-537.100525
667.382040	-182.021622	-509.416718	-546.802490
667.385392	-184.885452	-511.345428	-556.270630
667.388783	-186.814148	-512.338928	-566.966125
667.391961	-189.327301	-513.975464	-576.317383
667.395319	-192.600235	-513.741638	-587.129761
667.398635	-195.464066	-514.910583	-597.357727
667.401987	-198.327881	-515.027466	-608.053223
667.405331	-200.198135	-515.378113	-619.274719
667.408732	-203.120392	-515.378113	-629.444153
667.412074	-205.692001	-515.904114	-640.899475
667.415374	-208.906494	-515.261230	-652.179443
667.419055	-211.068970	-515.144348	-662.056702
667.422414	-214.341904	-515.319641	-674.739319
667.425836	-216.679718	-515.027466	-685.727051
667.429163	-219.309753	-513.274109	-696.948608
667.432102	-221.355347	-513.274109	-708.696106
667.435802	-224.394516	-511.053162	-719.450073
667.439124	-226.556992	-510.410278	-731.080688
667.442426	-229.479263	-508.890717	-742.886658
667.445747	-231.933945	-507.604919	-755.452332
667.449127	-234.388657	-505.442413	-766.498535
667.452502	-237.252502	-503.689087	-778.070740
667.455850	-239.940979	-501.234375	-790.870239
667.459153	-242.804794	-498.838074	-804.137390
667.462495	-245.201065	-494.863831	-815.241943
667.465956	-248.357101	-492.175323	-827.632385
667.469299	-250.811813	-488.785492	-838.912354
667.472633	-253.558762	-485.161896	-851.945618
667.475982	-255.955002	-480.135559	-862.699585
667.479324	-258.409698	-474.466400	-874.914673
667.482608	-262.091736	-468.972534	-886.311462
667.485915	-264.838684	-465.524231	-898.292786
667.489269	-267.760956	-459.387482	-909.572754
667.492639	-270.274109	-454.770294	-921.495605
667.495942	-273.254822	-447.581512	-932.366394
667.499269	-276.177094	-441.678558	-942.945068
667.502651	-278.865570	-434.898895	-953.173035
667.505943	-281.787842	-427.593201	-962.232056
667.509357	-284.943878	-420.813538	-973.570374
667.512646	-287.983032	-413.449402	-982.629456
667.515968	-290.320862	-405.091736	-992.039185
667.519347	-293.301575	-397.493835	-1002.091736
667.522669	-295.580933	-389.194611	-1011.209229
667.525956	-298.561646	-380.077118	-1020.092896
667.529301	-301.074799	-370.901215	-1028.333740
667.532595	-303.587952	-361.374634	-1035.522461
667.535985	-305.808899	-351.555817	-1044.230835
667.539292	-307.854462	-342.029205	-1051.945679
667.543062	-310.133820	-331.625946	-1059.134399
667.546423	-312.296295	-322.157806	-1065.621948
667.549735	-313.582092	-311.696075	-1071.992432
667.553122	-316.387482	-300.942139	-1078.187622
667.556394	-317.614838	-289.720612	-1083.622925
667.559745	-319.718872	-278.615997	-1089.233887
667.563036	-320.186432	-266.517822	-1094.786133
667.566390	-322.232025	-255.588547	-1100.046265
667.569753	-322.582672	-244.016357	-1102.676270
667.573070	-323.400940	-232.502625	-1107.994751
667.576378	-324.394501	-219.878433	-1110.215576
667.579684	-325.329620	-207.078903	-1114.482178
667.583016	-326.615417	-195.272949	-1117.462891
667.586409	-326.732300	-182.414963	-1119.859131
667.589761	-327.609009	-169.030991	-1121.729370
667.593071	-328.018097	-156.348343	-1122.956665
667.596474	-328.427216	-142.438354	-1124.301025
667.599788	-328.251892	-128.937469	-1124.417969
667.603139	-327.842773	-115.261246	-1125.353027
667.606450	-328.076569	-101.526596	-1123.716553
667.609838	-328.135010	-87.850372	-1123.833374
667.613127	-328.310333	-73.823494	-1122.723022
667.616441	-328.135010	-59.504383	-1121.378784
667.619756	-327.959656	-45.945061	-1118.164185
667.623179	-327.725861	-32.210403	-1114.949707
667.626491	-327.784332	-18.417299	-1113.137939
667.629779	-327.667450	-4.682642	-1109.514282
667.633148	-328.193420	10.746931	-1106.241333
667.636853	-327.667450	23.254236	-1102.208618
667.640172	-326.206299	37.631794	-1098.000610
667.643465	-325.914093	51.483341	-1092.798950
667.646897	-326.089417	65.159561	-1087.714233
667.650223	-325.271179	78.192871	-1082.220337
667.653553	-324.628296	91.226189	-1076.200439
667.656935	-323.459381	104.317947	-1070.297485
667.660240	-322.816467	117.117477	-1064.277588
667.663573	-321.296906	130.326126	-1057.205688
667.666868	-320.478668	142.424316	-1051.361206
667.670228	-319.075958	154.580948	-1043.587891
667.673585	-318.491516	166.971359	-1037.159058
667.676898	-316.562836	178.835770	-1029.385742
667.680204	-314.575684	190.407944	-1021.787842
667.683529	-313.406769	201.746353	-1013.254761
667.686824	-311.536499	212.734055	-1006.767395
667.690271	-309.841583	223.604904	-998.994141
667.693563	-307.503784	234.125076	-991.688477
667.696878	-306.568665	244.353012	-983.272339
667.700222	-303.997070	254.756287	-974.856262
667.703541	-302.009918	264.399780	-965.914124
667.706875	-300.198120	274.043274	-957.497925
667.710205	-297.743439	283.219177	-948.906494
667.713979	-295.464050	292.862671	-941.483948
667.717323	-293.535370	301.512573	-932.658691
667.721086	-291.139099	310.688477	-923.249023
667.724419	-288.450592	318.637054	-914.248413
667.727750	-286.638794	327.637634	-905.013977
667.731119	-283.833405	335.293976	-896.597900
667.734415	-282.021637	343.534790	-887.947998
667.737749	-279.157776	350.606689	-879.181152
667.741082	-277.287537	358.496796	-868.602600
667.744426	-274.482147	366.270050	-860.244873
667.747754	-272.436584	372.932800	-850.250793
667.751083	-269.748108	379.420227	-841.016357
667.754422	-266.767365	385.264771	-832.308044
667.757745	-264.838684	392.044434	-822.664490
667.761087	-262.676208	398.005859	-813.371704
667.764420	-260.747528	404.201050	-803.026917
667.767746	-258.059021	408.993591	-793.383362
667.771081	-255.955002	414.604340	-784.675049
667.774420	-254.201645	419.221527	-775.791382
667.777751	-252.506729	424.014008	-765.797180
667.781097	-249.759796	428.338989	-755.861450
667.784417	-248.064880	432.430176	-747.036194
667.787749	-246.019287	436.462891	-737.568115
667.791080	-244.558167	440.086517	-730.028625
667.794411	-242.687912	443.125641	-720.911194
667.797748	-240.642303	447.567535	-712.027466
667.801075	-237.778488	450.314453	-703.377563
667.804410	-236.726471	452.535370	-696.071899
667.807743	-234.096436	455.399200	-687.597351
667.811115	-232.109314	458.321442	-679.239624
667.814412	-230.472824	460.600830	-671.174133
667.817741	-228.427246	463.230865	-664.043884
667.821078	-226.440094	464.925781	-655.043274
667.824413	-224.452942	467.146698	-647.737610
667.827736	-221.939804	469.016968	-639.905884
667.831073	-220.537109	470.887207	-632.658691
667.834407	-218.608429	472.465240	-625.820618
667.837743	-216.387512	472.932800	-619.508484
667.841078	-214.458801	474.101715	-611.501465
667.844405	-212.413208	476.030426	-605.072449
667.847745	-210.659851	477.666870	-598.468140
667.851075	-208.789597	478.660461	-591.513184
667.854423	-206.393341	480.063110	-584.207520
667.857740	-205.166000	480.939789	-577.603149
667.861075	-203.003510	481.991821	-571.349548
667.864401	-201.016373	482.517822	-564.862061
667.867743	-199.263016	483.628296	-558.316162
667.871066	-197.568100	483.394501	-552.471619
667.874836	-196.106964	483.862091	-546.685547
667.878183	-193.769150	484.329620	-540.431946
667.881491	-191.957336	484.446533	-533.593811
667.884825	-190.379318	484.563416	-527.047913
667.888153	-188.918182	485.264740	-522.781433
667.891517	-187.398605	484.797211	-516.878418
667.894858	-186.346588	485.089417	-510.858582
667.898231	-184.593216	485.031006	-505.481567
667.901526	-183.015198	485.147888	-499.578613
667.904833	-181.729401	484.797211	-494.552338
667.908161	-180.443604	484.271210	-489.701355
667.911493	-179.157806	484.154297	-485.084167
667.914821	-177.462906	484.271210	-479.999390
667.918160	-176.878433	483.336090	-475.382233
667.921510	-175.592636	482.751617	-468.544159
667.924819	-174.189941	482.810089	-464.043854
667.928175	-173.488602	482.459381	-459.485107
667.931514	-172.670380	481.232056	-454.458801
667.934843	-171.384567	480.822906	-451.127441
667.938157	-170.274109	480.355377	-446.919342
667.941500	-169.105209	478.075989	-443.587982
667.944820	-168.929871	477.666870	-439.672150
667.948159	-167.468735	477.433075	-435.697845
667.951489	-166.241379	476.497955	-432.191132
667.955261	-165.715378	475.504425	-429.502625
667.958188	-164.254242	474.277039	-426.405060
667.962013	-163.903564	474.978363	-422.606079
667.965311	-163.436005	474.978363	-419.040924
667.968643	-162.033325	473.751038	-416.644684
667.971939	-161.156647	473.108124	-412.962585
667.975233	-160.864410	472.874390	-410.274139
667.978569	-159.637054	472.874390	-407.702484
667.981947	-158.585052	471.880798	-404.838715
667.985263	-158.117477	471.296326	-402.267090
667.988652	-156.890121	470.653412	-399.461700
667.991985	-157.007019	470.302734	-397.416107
667.995251	-155.721222	469.542938	-395.896545
667.998572	-154.902985	469.250732	-394.143188
668.001944	-154.318527	468.666290	-392.389832
668.005269	-153.909424	468.140289	-388.941559
668.008593	-153.500290	467.848022	-387.655762
668.011988	-152.214508	467.438965	-385.142609
668.015354	-152.272949	466.211578	-383.798370
668.018667	-151.104050	466.094696	-382.161896
668.021909	-150.636475	465.276459	-380.408539
668.025248	-149.759796	465.042664	-378.772064
668.028587	-149.175339	464.516663	-376.434265
668.031922	-148.298660	464.341339	-375.206909
668.035736	-148.415558	463.698456	-373.219757
668.038650	-148.473999	463.113983	-371.524841
668.041992	-148.123322	462.880188	-371.232605
668.045725	-147.597305	462.295746	-368.953247
668.049074	-147.889542	461.419067	-367.667450
668.052408	-147.363525	461.243744	-366.381653
668.055764	-147.363525	461.243744	-365.972534
668.059123	-147.421982	461.243744	-364.920532
668.062495	-147.188202	461.068420	-363.576263
668.065792	-147.480423	460.717712	-363.284027
668.069128	-147.012863	460.016357	-362.991821
668.072459	-146.895966	460.367035	-362.874939
668.075844	-146.954422	460.133301	-362.232025
668.079172	-147.012863	459.490356	-361.472260
668.082522	-146.662186	459.782562	-360.946228
668.085828	-147.305099	460.367035	-360.186432
668.089222	-147.071320	459.315033	-360.127991
668.092498	-147.188202	459.315033	-360.595551
668.095850	-147.012863	458.613708	-360.303345
668.099152	-147.597305	459.022827	-361.180023
668.102486	-147.188202	458.613708	-361.472260
668.105835	-146.954422	458.964355	-362.290466
668.109172	-147.129745	458.964355	-362.465820
668.112484	-147.772659	459.431915	-362.816467
668.115912	-147.831100	459.782562	-363.576263
668.119246	-148.240219	459.782562	-363.400940
668.122572	-148.064880	459.724152	-364.394501
668.125939	-148.649338	459.841034	-365.855652
668.129235	-148.707779	460.016357	-365.738739
668.132603	-148.649338	461.360626	-367.141449
668.135962	-149.526016	460.600830	-367.725891
668.139294	-149.818237	461.477478	-369.303925
668.142657	-150.110474	461.126831	-370.706604
668.145965	-150.519577	461.594421	-371.875488
668.149282	-150.344254	462.120422	-373.745758
668.152645	-150.519577	462.704865	-374.563995
668.155952	-151.104050	463.406189	-375.265350
668.159362	-151.513153	463.464661	-377.310913
668.162712	-151.922272	463.815338	-378.187622
668.166054	-151.805389	464.399780	-380.350098
668.169382	-152.565170	464.633575	-381.635895
