time (s)	magX	magY	magZ
4377.890031	-6.533022	447.196381	742.964905
4377.893360	-5.071888	441.994720	760.732300
4377.896698	-3.961427	435.098175	778.207458
4377.900032	-2.441847	427.675629	797.611328
4377.903362	0.012857	419.960846	815.495605
4377.906711	2.409117	410.901794	833.964355
4377.910030	4.396259	401.492126	853.017578
4377.913362	6.792519	391.790161	869.966736
4377.916694	9.539450	381.269989	888.786072
4377.920033	12.111046	369.580933	906.495056
4377.923362	15.617767	356.722961	924.437744
4377.926693	17.604908	344.098755	941.912903
4377.930028	21.228521	330.130310	958.219177
4377.933800	24.326124	315.752777	976.220337
4377.937157	27.423727	300.323212	992.760376
4377.940449	30.988897	284.601410	1009.242004
4377.943781	34.203392	268.528900	1022.801208
4377.947112	37.300995	250.995346	1037.354248
4377.950471	40.515488	234.630615	1051.907104
4377.953781	43.788429	215.343658	1065.817139
4377.957112	46.827583	196.991821	1077.623047
4377.960473	49.632957	177.061951	1089.662842
4377.963803	52.905907	158.184113	1101.293457
4377.967151	55.594391	137.669785	1111.872070
4377.970471	58.575104	117.272346	1121.866211
4377.973780	61.438927	96.173576	1129.990112
4377.977114	63.893631	75.425484	1137.120483
4377.980481	66.465225	55.086502	1143.549438
4377.983788	68.919937	33.637058	1148.049683
4377.987113	71.023964	12.246057	1153.718994
4377.990444	73.069550	-9.203388	1157.693237
4377.993780	75.290474	-30.945059	1159.388184
4377.997160	77.803627	-52.102276	1160.498657
4378.000465	79.907654	-73.201057	1160.849243
4378.003798	81.427238	-93.890709	1160.323242
4378.007102	83.239044	-114.697258	1157.401001
4378.010442	85.693748	-135.445343	1153.602051
4378.013782	86.921097	-155.959671	1150.855103
4378.017532	88.908241	-175.071304	1146.179443
4378.020893	90.836945	-194.942719	1137.412598
4378.024256	92.765633	-213.762131	1130.048584
4378.027632	94.109886	-231.763306	1120.755737
4378.030945	95.512573	-249.238449	1109.534302
4378.034310	97.558151	-266.421387	1098.604980
4378.037552	99.486855	-283.487427	1086.974365
4378.040858	100.889542	-299.384583	1074.174805
4378.044193	102.233780	-314.697266	1058.628418
4378.047557	103.928696	-329.425507	1044.250732
4378.050885	105.974281	-343.744598	1028.821167
4378.054275	107.552315	-356.719482	1011.462891
4378.057633	108.545876	-368.817657	994.630676
4378.060860	109.656349	-380.974304	977.272339
4378.064188	110.474579	-391.903564	957.751587
4378.067551	111.000587	-402.540649	938.289307
4378.070890	111.468147	-412.242554	920.346558
4378.074215	112.227943	-421.476929	899.306213
4378.077599	112.637054	-429.191742	880.720642
4378.080954	112.227943	-436.672729	860.030945
4378.084234	112.520157	-442.867889	839.750427
4378.087535	112.169495	-449.180023	819.703674
4378.090877	111.526596	-454.323212	799.949158
4378.094212	110.942139	-458.531281	779.668579
4378.097559	110.708359	-463.206909	758.745178
4378.100967	109.831680	-466.538300	739.458191
4378.104281	109.305672	-470.044983	718.885437
4378.108027	107.961433	-472.149048	700.066040
4378.111354	106.208061	-472.908844	679.727051
4378.114644	105.389832	-475.071350	659.855652
4378.118042	103.928696	-475.831085	641.153137
4378.121389	102.467560	-477.876709	622.392151
4378.124723	101.181770	-478.227386	603.572754
4378.128078	99.253075	-476.883118	585.337830
4378.131394	98.201050	-475.772675	567.395081
4378.134671	96.681480	-474.194611	550.621277
4378.138056	94.635880	-472.675049	532.386353
4378.141360	93.642319	-471.330780	515.203430
4378.144741	92.239632	-468.817657	498.838684
4378.148025	90.778496	-466.421417	482.415558
4378.151350	89.434258	-464.083588	466.693756
4378.154683	87.973122	-460.518402	450.387512
4378.158048	86.687317	-458.472839	435.659241
4378.161366	85.109291	-454.849243	420.112793
4378.164683	83.823494	-451.108704	405.384583
4378.168060	82.362358	-447.075989	391.591461
4378.171401	81.953247	-443.510834	379.025696
4378.174695	80.667450	-439.127411	364.823486
4378.178056	79.615433	-435.562225	351.497955
4378.181393	78.154297	-430.711273	338.523071
4378.184746	77.511398	-426.035645	326.074219
4378.188072	76.167152	-421.710693	314.677399
4378.191391	75.699593	-416.450653	303.163666
4378.195177	74.472237	-412.125671	291.883698
4378.198070	73.478668	-408.034454	281.480408
4378.201793	72.777328	-402.657501	271.310944
4378.205201	70.907074	-397.865021	260.615448
4378.208495	69.796608	-394.066040	251.322617
4378.211847	69.621277	-388.513733	241.854462
4378.215148	68.393921	-384.305664	233.496796
4378.218455	66.815895	-379.396271	224.729980
4378.221825	66.348335	-374.077759	217.132095
4378.225159	65.296318	-369.928131	208.540619
4378.228451	64.127411	-365.135590	201.819397
4378.231805	63.250732	-360.752197	193.578613
4378.235116	61.848045	-355.375214	187.441849
4378.238474	60.328468	-351.167145	180.311523
4378.241784	59.510223	-346.725311	173.765625
4378.245116	58.575104	-341.991241	167.336655
4378.248492	56.938629	-338.016968	161.316772
4378.251853	55.945061	-333.458221	156.348907
4378.255201	54.250145	-329.483948	150.095261
4378.258491	53.665695	-325.100555	145.068970
4378.261795	52.672127	-321.593811	140.276443
4378.265173	51.795441	-316.918182	135.250153
4378.268518	51.386330	-313.528351	129.873184
4378.271797	50.100525	-309.670990	125.957352
4378.275146	49.691406	-305.462891	120.931046
4378.278872	48.639389	-301.897736	116.839859
4378.282169	47.645821	-298.040344	112.631790
4378.285488	46.944473	-294.475189	109.066635
4378.288920	46.067795	-291.143768	104.800125
4378.292212	45.015785	-287.461731	102.228531
4378.295525	44.723549	-283.779663	97.845123
4378.298876	44.022209	-279.922272	94.513733
4378.302178	43.145531	-276.532440	91.182358
4378.305536	42.619522	-273.610199	88.201645
4378.308838	42.035065	-270.629456	84.578033
4378.312189	41.801285	-267.181183	81.655762
4378.315519	40.924599	-264.551147	79.259506
4378.318826	40.690819	-261.453522	76.980133
4378.322169	40.281708	-257.888397	73.590302
4378.325492	39.872589	-255.199875	71.544724
4378.328794	39.288132	-252.511398	67.687317
4378.332148	39.288132	-249.822906	65.174171
4378.335467	38.937462	-247.251312	63.070141
4378.339203	38.762131	-244.095261	61.199883
4378.342549	37.651665	-241.874344	58.452957
4378.345859	37.359444	-239.478073	57.284050
4378.349237	37.300995	-238.250717	55.238461
4378.352551	36.599648	-235.386902	53.543545
4378.355915	36.248978	-233.516663	51.205730
4378.359234	35.722969	-231.178848	50.095272
4378.362538	35.489189	-228.724136	47.932789
4378.365826	34.670952	-227.146118	46.939220
4378.369160	34.028053	-224.808304	44.542961
4378.372552	34.086494	-222.996490	43.841618
4378.375861	33.034485	-220.834000	42.848045
4378.379130	32.742256	-219.781998	40.977795
4378.382498	32.800697	-218.028625	40.685570
4378.385829	32.099358	-216.158371	38.815315
4378.389263	31.222677	-214.755692	37.354179
4378.392552	31.456457	-213.236099	36.594391
4378.395850	31.047342	-211.833420	35.308594
4378.399197	30.579779	-210.138519	34.957924
4378.402525	30.170660	-209.261826	34.315025
4378.405849	30.170660	-207.742249	33.613678
4378.409199	29.527761	-206.281128	32.444775
4378.412922	29.235537	-205.112198	31.568092
4378.416699	29.177092	-203.651077	30.516077
4378.419982	28.884863	-202.189926	29.113388
4378.423315	28.709528	-201.196365	28.295153
4378.426654	28.651083	-200.319687	28.412045
4378.430004	28.241964	-199.150787	27.360027
4378.433314	28.358854	-197.748093	27.184690
4378.436640	27.599062	-196.812973	25.957338
4378.439978	27.657507	-195.994736	25.314440
4378.443306	27.599062	-195.351837	24.788431
4378.446637	27.540617	-194.182938	23.736416
4378.449977	27.832846	-193.189362	23.853306
4378.453312	27.306837	-192.663345	23.035070
4378.456638	27.599062	-191.669785	22.742844
4378.459976	27.365282	-191.143768	22.567509
4378.463309	27.774401	-190.325531	21.924610
4378.466644	27.599062	-189.156631	21.281712
4378.469973	27.657507	-189.215073	20.580366
4378.473318	27.715952	-188.455276	20.288139
4378.476634	27.014608	-187.461716	19.937468
4378.479974	27.131502	-187.286377	20.346584
4378.483305	26.839273	-186.701935	19.703686
4378.486685	26.722383	-186.818817	19.879023
4378.489969	26.663939	-186.643478	19.528351
4378.493301	27.540617	-185.825241	19.119232
4378.496633	26.956163	-186.175919	19.060787
4378.499971	26.780828	-186.234360	19.060787
4378.503304	26.430155	-185.766800	19.411459
4378.506641	26.371710	-185.299240	18.943897
4378.509962	26.488600	-185.766800	18.827005
4378.513301	26.547049	-185.825241	19.236122
4378.516652	25.962595	-185.766800	19.528351
4378.519971	25.436586	-186.351257	19.353014
4378.523303	26.196375	-185.942139	18.885452
4378.526635	26.254820	-186.468140	20.755703
4378.529968	25.845701	-187.169495	19.294567
4378.533301	25.962595	-187.169495	19.645241
4378.536637	25.962595	-187.227921	20.229694
4378.539962	25.670366	-187.870834	20.521921
4378.543297	26.196375	-187.929276	20.872593
4378.546637	25.495031	-188.221497	21.047928
4378.549959	25.962595	-187.987717	21.457047
4378.553301	25.904150	-189.273529	21.807718
4378.556644	26.196375	-189.741089	21.690826
4378.559981	26.430155	-190.383987	22.216835
4378.563726	26.547049	-191.377548	22.450617
4378.567061	26.605494	-190.793091	22.275280
4378.570394	26.605494	-192.312683	23.502634
4378.573722	26.780828	-193.598465	23.502634
4378.577067	26.839273	-194.007599	23.677971
4378.580388	27.540617	-194.241379	23.794861
4378.583718	27.482172	-194.767380	25.022213
4378.587070	27.423727	-195.702499	25.080658
4378.590423	28.066629	-196.579193	26.191120
4378.593745	27.540617	-197.806534	26.132675
4378.597057	28.008184	-198.507874	26.717129
4378.600383	28.534193	-199.852127	26.834019
4378.603730	28.884863	-200.787247	27.184690
4378.607053	28.826418	-202.073059	28.704271
4378.610381	29.293982	-203.008179	29.171833
4378.613719	29.469316	-204.001755	29.756287
4378.617045	29.936880	-206.047333	31.042084
4378.620433	30.053770	-207.157791	32.035652
4378.623738	30.112215	-208.794266	32.678555
4378.627076	30.404444	-210.138519	34.139687
4378.630439	30.404444	-211.599640	34.315025
4378.633758	30.170660	-213.469894	35.834602
4378.637039	30.988897	-214.755692	37.529518
4378.640381	30.988897	-216.158371	38.639977
4378.643722	31.339567	-218.379288	39.867332
4378.647058	31.398012	-220.191101	40.042671
4378.650381	31.631796	-221.593796	41.737583
4378.653712	32.683807	-224.165405	43.198719
4378.657074	32.450027	-226.386322	45.302750
4378.660401	32.566917	-228.607239	46.296322
4378.663782	32.566917	-231.237274	48.049683
4378.667064	32.859146	-232.756866	49.569263
4378.670382	33.794273	-235.445343	51.030396
4378.673710	33.268265	-237.432495	53.251320
4378.677075	33.618935	-239.302734	55.355350
4378.680373	33.852715	-241.465225	57.342491
4378.683714	34.729401	-244.095261	58.745182
4378.687041	34.846291	-246.257751	60.264759
4378.690399	35.606079	-249.004654	62.894802
4378.693754	35.430740	-251.517838	66.401520
4378.697070	36.248978	-254.323212	67.395096
4378.700817	36.774986	-257.128601	70.200470
4378.704127	37.476334	-259.407959	73.648743
4378.707079	37.827003	-261.979553	74.992996
4378.710800	38.294563	-265.544739	77.506134
4378.714153	38.937462	-268.350098	81.071304
4378.717491	39.580360	-271.330811	83.876678
4378.720428	40.398598	-274.369995	87.383408
4378.724240	40.749268	-277.175354	89.721222
4378.727485	41.275276	-280.156067	92.818832
4378.730792	42.619522	-283.253662	95.741089
4378.734127	43.379311	-286.818848	100.416718
4378.737479	44.022209	-290.033325	103.222092
4378.740828	44.197548	-294.007599	107.196381
4378.744205	45.015785	-297.689667	111.112228
4378.747535	46.009346	-301.137939	114.911163
4378.750895	47.002922	-305.170685	119.762131
4378.754128	47.879601	-308.794281	123.736420
4378.757457	48.054939	-312.651672	129.288727
4378.760785	48.288719	-316.567505	133.905914
4378.764171	48.931618	-321.009338	138.698425
4378.767480	49.165398	-324.749847	144.426071
4378.770858	50.042084	-329.425507	149.919937
4378.774206	50.626534	-332.698456	155.706024
4378.777456	51.210991	-337.549408	160.732330
4378.780790	52.146111	-342.108124	167.278198
4378.784129	52.555237	-346.199310	173.531845
4378.787479	52.730568	-350.874939	179.902390
4378.790809	53.841034	-355.199890	187.675629
4378.794242	54.542374	-360.343079	193.695511
4378.797553	55.126831	-364.901825	201.819397
4378.800852	55.477501	-369.986572	210.118637
4378.804577	56.061958	-374.194611	218.184097
4378.807942	57.113968	-378.987152	225.840454
4378.810888	58.049095	-383.078339	234.490356
4378.814624	58.984222	-388.279968	243.257141
4378.817975	59.627113	-392.663361	252.433075
4378.821332	60.562248	-396.696106	260.381653
4378.824667	61.380486	-401.430176	271.135590
4378.827931	61.906487	-406.164215	281.480408
4378.831300	62.841614	-410.255432	291.591461
4378.834647	64.244301	-414.814148	303.280518
4378.838002	65.822327	-419.898895	313.157806
4378.841335	66.582115	-424.165405	324.788422
4378.844667	67.458801	-428.081238	335.834595
4378.847959	68.160141	-432.581512	348.166565
4378.851338	69.913506	-436.497345	360.849213
4378.854704	71.023964	-440.705444	374.291626
4378.857998	71.900642	-444.621277	387.383392
4378.861316	73.244888	-448.946228	401.001160
4378.864681	73.829346	-452.511414	415.437164
4378.867994	75.524254	-456.193451	429.580963
4378.871390	76.751610	-459.407959	444.542969
4378.874709	77.277611	-462.739319	459.738770
4378.877988	78.797195	-465.486298	476.454102
4378.881321	78.855644	-468.408539	494.104614
4378.884626	80.609001	-470.687927	509.241943
4378.887974	80.784340	-473.142639	526.775574
4378.891331	81.777908	-475.421997	544.426086
4378.895064	82.070137	-478.402710	561.959656
4378.898392	82.654594	-479.571594	580.019287
4378.901702	82.654594	-481.032745	598.663391
4378.904970	83.239044	-481.149628	618.125671
4378.908314	83.472824	-482.143219	636.828186
4378.911682	83.472824	-481.617218	655.472290
4378.914971	83.706604	-481.266510	675.869690
4378.918295	83.531265	-479.746979	695.741089
4378.921663	83.355934	-478.928711	716.196960
4378.924970	84.057281	-475.714203	734.548767
4378.928383	83.122154	-472.967285	754.829346
4378.931683	83.005264	-469.226776	775.343628
4378.934988	82.771484	-465.018707	796.150208
4378.938359	82.771484	-460.576874	815.963196
4378.941685	82.362358	-456.193451	835.600769
4378.945003	81.836357	-450.232025	857.342468
4378.948293	82.070137	-443.569275	875.811218
4378.951664	81.368797	-436.906494	896.150208
4378.955030	80.784340	-429.542389	915.028015
4378.958326	81.018120	-420.717133	933.496765
4378.962092	80.492111	-411.482758	952.140808
4378.965426	80.492111	-402.014648	970.609619
4378.968762	80.141441	-391.494476	988.610779
4378.971728	79.673874	-380.682068	1005.326111
4378.975418	79.264763	-368.700775	1020.930969
4378.978735	78.738747	-355.083008	1036.536011
4378.982065	78.037407	-342.517273	1050.971924
4378.985363	77.219170	-328.315033	1064.823486
4378.988787	76.926941	-314.112823	1078.441284
4378.992109	75.582703	-299.033905	1091.123901
4378.995420	74.355347	-282.669220	1102.696167
4378.998737	73.069550	-266.246063	1114.151489
4379.002023	71.549973	-250.056686	1123.268921
4379.005305	70.147285	-232.932190	1132.678589
4379.008658	68.043251	-214.580353	1140.276489
4379.011991	66.114555	-195.936279	1146.530151
4379.015303	64.478081	-177.292221	1153.017578
4379.018607	61.672707	-157.713028	1156.933350
4379.022361	59.218002	-137.841599	1161.725952
4379.025701	56.412628	-117.677971	1164.589844
4379.029007	53.431915	-97.455879	1165.641724
4379.032332	51.210991	-76.941559	1166.050903
4379.035681	48.347160	-55.492111	1166.226318
4379.038979	45.132675	-34.860901	1163.771484
4379.042298	41.859734	-14.171244	1160.615479
4379.045601	39.112801	7.395091	1156.641235
4379.048965	36.073639	28.786091	1151.790283
4379.052309	32.566917	48.657509	1144.893799
4379.055621	29.703096	69.931618	1139.107666
4379.058933	26.605494	90.153709	1130.223877
4379.062261	23.391001	110.492691	1121.632446
4379.065573	20.585623	130.773239	1113.391724
4379.069009	18.247807	150.527771	1101.410400
4379.072313	15.150204	169.054932	1091.065552
4379.075628	12.578609	188.867920	1078.324463
4379.078955	9.831676	206.343063	1064.765015
4379.082294	7.902981	224.753372	1052.608521
4379.086115	6.032728	241.176498	1038.932251
4379.089007	4.571596	257.132080	1024.145630
4379.092332	2.233781	273.379883	1009.651123
4379.096113	0.597311	289.277039	994.689087
4379.099443	-1.272941	304.297455	979.259521
4379.102803	-2.675629	317.973694	962.485718
4379.106101	-3.902981	332.000549	945.828735
4379.109410	-5.481006	344.215668	928.996521
4379.112783	-6.240795	356.372284	911.813599
4379.116082	-7.760375	368.938049	895.215088
4379.119423	-8.578609	379.633545	878.733459
4379.122734	-10.448860	390.095245	862.076599
4379.126057	-12.026885	399.329620	844.367615
4379.129446	-12.260667	408.914673	827.359985
4379.132743	-14.364699	416.980133	810.586182
4379.136003	-15.299826	424.402679	793.286377
4379.139337	-16.644068	431.942139	776.746338
4379.142632	-18.338984	438.429535	758.803650
4379.146060	-19.215664	444.215637	741.620667
4379.149382	-20.618351	449.534180	726.249573
4379.152704	-21.611923	453.917603	709.066589
4379.156433	-22.780830	458.476288	692.877258
4379.159902	-24.534191	462.509064	676.629456
4379.163276	-24.884863	465.255981	660.556946
4379.166576	-26.404442	468.119812	643.900024
4379.169907	-27.573349	470.340729	628.938049
4379.173235	-28.274693	472.035645	613.099365
4379.176574	-28.917591	473.555237	597.435974
4379.179898	-29.969610	474.139679	581.655762
4379.183233	-30.437172	474.957886	567.102844
4379.186571	-31.489187	475.659271	553.134399
4379.189894	-32.365868	475.133240	537.938599
4379.193231	-33.067211	474.724152	524.087097
4379.196565	-33.417885	474.022766	511.053772
4379.199902	-33.768555	473.146088	498.020447
4379.203234	-34.236122	470.691406	483.058441
4379.206571	-34.177673	469.054932	470.317352
4379.209905	-34.236122	467.769135	458.160706
4379.213229	-34.411457	466.015778	446.413208
4379.216561	-34.236122	463.853302	434.198120
4379.219904	-33.827003	461.223267	422.099945
4379.223233	-34.002338	458.826965	410.586182
4379.226561	-33.593224	455.437195	400.533600
4379.229899	-33.710114	452.924011	390.364105
4379.233236	-33.885448	450.352417	380.077728
4379.236563	-32.541206	446.728790	370.200470
4379.239894	-32.541206	443.514313	359.271179
4379.243261	-32.541206	440.767395	349.686157
4379.246561	-32.482758	436.325562	340.568665
4379.249903	-32.190533	433.461700	332.210968
4379.253232	-32.073639	430.305664	322.918182
4379.256557	-31.313852	426.448242	314.326691
4379.259894	-31.196960	423.350677	305.793701
4379.263229	-31.080070	419.785492	298.195801
4379.266555	-31.255407	415.752747	289.896545
4379.270338	-30.495617	411.720032	283.350677
4379.273658	-30.495617	408.505524	275.343658
4379.276981	-30.086500	404.531250	268.447083
4379.280340	-30.437172	400.030945	261.784363
4379.283653	-30.320282	396.290466	255.063110
4379.287022	-30.028055	393.017517	248.400360
4379.290312	-30.495617	389.277039	243.140274
4379.293647	-30.437172	385.594971	236.535934
4379.297003	-30.144945	381.737579	230.457626
4379.300338	-30.495617	378.230865	223.970184
4379.303672	-30.203390	374.957916	218.768555
4379.307040	-30.437172	371.392761	213.625366
4379.310309	-29.969610	367.418457	208.014618
4379.313644	-29.911163	364.262421	202.579193
4379.316982	-29.969610	360.989471	198.312683
4379.320314	-29.911163	357.132080	193.111038
4379.323650	-29.794273	352.924011	189.253662
4379.326981	-29.268265	349.534180	183.584457
4379.330349	-29.852718	346.611908	179.376389
4379.333671	-29.735828	343.222076	175.869659
4379.337013	-29.443602	339.832245	172.129166
4379.340343	-29.151375	337.026886	168.096436
4379.343634	-28.508474	333.695496	163.888367
4379.346974	-28.508474	331.065430	160.089417
4379.350730	-27.982468	328.493866	157.576263
4379.354087	-27.982468	325.279358	154.303329
4379.357421	-27.982468	322.532440	151.205719
4379.360757	-27.281122	319.902405	147.932785
4379.364199	-27.105785	317.272339	145.244308
4379.367480	-27.047340	314.466980	142.848053
4379.370733	-26.813560	312.538269	139.165985
4379.374089	-26.521332	309.382233	136.477509
4379.377393	-25.761543	307.511963	133.847458
4379.380755	-25.878433	305.349487	131.977203
