time (s)	magX	magY	magZ
4314.691062	42.444183	474.022766	486.565155
4314.694405	43.320862	475.250153	502.053192
4314.697711	44.314438	476.009949	516.664551
4314.701040	44.781998	476.828156	533.321472
4314.704429	45.541786	478.230865	548.108154
4314.707740	46.535362	477.471069	564.355957
4314.711103	47.412041	477.178802	581.480408
4314.714416	48.171829	476.009949	597.903564
4314.717737	49.808296	474.198090	616.255432
4314.721060	50.918762	471.392731	633.555237
4314.724879	52.204559	469.347137	651.322632
4314.728189	53.957924	466.074219	668.271790
4314.731492	55.185272	462.158386	687.792542
4314.734814	57.464645	457.365845	705.501465
4314.738158	59.101112	453.040894	724.379333
4314.741481	61.146706	446.845673	743.081848
4314.744828	63.075394	440.007599	761.316772
4314.748183	65.120987	433.111053	779.084167
4314.751463	67.458801	425.571594	798.078918
4314.754825	69.270607	416.980133	815.729370
4314.758114	71.257744	407.570404	834.139648
4314.761472	73.595558	397.693146	852.959106
4314.764788	75.290474	387.406769	870.609619
4314.768126	77.043831	375.893036	887.032715
4314.771516	78.388077	364.846863	905.326111
4314.774822	80.316780	352.339539	923.268799
4314.778148	81.368797	338.838684	939.282837
4314.781461	82.303917	326.039154	956.115173
4314.784753	83.239044	311.720032	973.298096
4314.788184	83.005264	296.231995	989.487366
4314.791506	83.355934	280.919342	1004.800171
4314.794810	84.115723	265.255981	1019.294556
4314.798172	83.648155	248.540634	1033.555298
4314.801461	83.063705	231.883713	1048.049683
4314.804823	82.771484	213.882538	1060.849243
4314.808187	81.894798	195.238464	1073.415039
4314.811489	81.018120	176.068390	1086.740601
4314.814879	79.790764	155.729401	1098.195801
4314.818184	79.089424	135.565765	1108.190063
4314.821494	77.336060	114.408531	1118.476440
4314.824806	76.108711	93.543541	1126.308105
4314.828094	74.472237	71.392754	1134.256592
4314.831543	72.894218	49.125072	1141.386963
4314.834889	71.549973	27.032730	1147.231445
4314.838207	70.556404	4.998832	1152.550049
4314.841580	69.212158	-18.379309	1156.290527
4314.844908	68.744598	-41.114552	1156.991821
4314.848198	67.517242	-63.440678	1159.797241
4314.851553	66.289894	-85.591469	1159.738770
4314.854842	66.056107	-108.034485	1157.576416
4314.858208	65.179428	-129.600815	1154.244995
4314.861522	64.302750	-150.758026	1149.744751
4314.864851	63.309174	-172.791931	1146.471680
4314.868632	63.192284	-193.598465	1138.464722
4314.871532	62.490944	-213.703659	1131.275879
4314.875296	62.432503	-232.990631	1122.918213
4314.878625	62.081825	-251.167145	1113.567017
4314.881931	61.146706	-269.577454	1101.059692
4314.885324	60.912918	-286.818848	1090.656372
4314.888621	59.685562	-303.534210	1077.097168
4314.891965	59.101112	-319.197571	1063.596191
4314.895236	58.516655	-334.159576	1049.277100
4314.898544	57.873756	-348.770905	1034.315063
4314.901865	56.120399	-362.622467	1018.826965
4314.905170	54.834602	-375.012878	1002.111633
4314.908529	53.081238	-387.169495	985.396240
4314.911836	51.094101	-398.040344	969.090027
4314.915164	49.165398	-408.677399	950.738159
4314.918470	46.944473	-418.963776	932.912292
4314.921793	44.489769	-428.607269	914.034485
4314.925132	42.561081	-436.964935	895.624207
4314.928884	39.931038	-444.562805	877.097046
4314.931834	37.125656	-451.751617	857.576294
4314.935613	34.787842	-457.303894	838.990601
4314.938941	31.982466	-463.732910	819.119202
4314.942219	29.527761	-469.051453	799.715332
4314.945582	26.956163	-473.960846	780.779053
4314.948965	23.741671	-478.461121	760.966064
4314.952233	21.403856	-482.201630	741.445312
4314.955531	18.773815	-485.182373	722.684387
4314.958888	16.552893	-487.169495	702.812988
4314.962167	14.156633	-488.805969	682.473999
4314.965580	12.111046	-489.916412	663.011658
4314.968896	10.065458	-490.968475	643.490906
4314.972206	7.552309	-490.851532	625.080688
4314.975515	6.792519	-490.910004	605.559875
4314.978805	5.214495	-490.384003	587.149597
4314.982199	4.162477	-489.799561	568.037964
4314.985496	2.993570	-487.753967	549.803040
4314.988863	2.116890	-486.059052	532.269409
4314.992216	1.415545	-484.188812	515.028015
4314.995550	1.064874	-482.084747	499.247833
4314.998865	0.889538	-479.513184	480.603729
4315.002170	0.480420	-474.837555	464.180603
4315.005935	-0.162478	-471.389252	447.582123
4315.009653	-0.571596	-468.350067	432.620117
4315.012988	-0.454705	-464.784912	417.950317
4315.016316	-1.156050	-460.693756	404.215637
4315.019656	-0.454705	-456.368774	390.305664
4315.023011	-0.746932	-452.043823	376.746338
4315.026346	-0.980714	-447.952667	364.005249
4315.029651	-1.682057	-444.504395	352.374634
4315.032986	-2.266511	-440.179443	339.049072
4315.036321	-1.740503	-434.744019	327.710693
4315.039655	-2.032730	-430.009949	317.365875
4315.042989	-3.026301	-426.210968	305.033905
4315.046320	-3.260082	-421.126282	296.150208
4315.049650	-3.844536	-416.392181	285.279388
4315.052985	-4.370543	-412.067230	276.278778
4315.056318	-5.364115	-407.333130	266.459961
4315.059651	-5.773232	-403.125092	258.102295
4315.062979	-6.649913	-398.800140	249.101700
4315.066313	-7.409702	-393.832275	241.620697
4315.069660	-7.994156	-388.981293	233.438324
4315.072981	-8.578609	-384.247223	225.606659
4315.076313	-10.039743	-379.980743	217.424301
4315.079647	-10.916424	-374.954407	210.177094
4315.082974	-11.383986	-370.629456	203.105209
4315.086311	-12.085331	-366.012299	196.150208
4315.089646	-13.195792	-361.161316	189.370544
4315.093039	-13.254238	-356.135010	182.649338
4315.096307	-13.137347	-351.751617	176.512573
4315.099682	-14.949153	-347.426666	170.083572
4315.102975	-15.942724	-342.517273	163.420807
4315.106306	-15.124489	-338.133850	158.160736
4315.109639	-15.299826	-332.990662	153.192871
4315.112986	-15.825833	-329.191711	147.056107
4315.116311	-16.118059	-325.158966	141.737579
4315.119646	-16.176506	-321.009338	137.003510
4315.122977	-15.533607	-316.216858	133.087662
4315.126307	-15.825833	-312.184113	127.652252
4315.129644	-15.592052	-308.268250	122.567505
4315.132971	-15.767387	-304.878448	118.885452
4315.136303	-15.241380	-301.430176	114.034485
4315.139642	-15.358271	-296.929901	110.469315
4315.142987	-14.540035	-293.540039	106.904160
4315.146303	-14.598481	-290.383972	102.812973
4315.149640	-13.663355	-286.468140	100.066040
4315.152974	-13.546465	-283.136780	96.325546
4315.156309	-13.663355	-280.097595	92.234375
4315.159677	-12.962011	-276.649323	90.364120
4315.162973	-13.137347	-273.317963	87.441849
4315.166310	-13.254238	-270.337250	85.162476
4315.169636	-12.669785	-267.824066	82.064880
4315.172967	-12.728230	-264.668030	79.493286
4315.176305	-12.319112	-262.271790	77.389252
4315.179635	-12.786674	-259.641754	74.992996
4315.182966	-12.962011	-257.011688	72.888962
4315.186328	-12.611339	-254.206314	70.901817
4315.189641	-13.897137	-251.693161	68.622444
4315.192963	-13.604910	-249.413788	66.050850
4315.196304	-13.663355	-247.426636	64.297485
4315.199631	-14.540035	-245.381058	62.427238
4315.202964	-13.488019	-242.926346	61.375225
4315.206304	-14.890708	-240.413193	59.680305
4315.210105	-15.241380	-238.542953	57.926945
4315.213410	-15.533607	-236.964920	56.524258
4315.216750	-15.767387	-234.393326	54.478672
4315.220066	-16.001169	-233.049088	53.368210
4315.223393	-16.001169	-230.769714	51.848629
4315.226725	-16.176506	-229.191696	50.855061
4315.230084	-16.410286	-226.912323	49.043255
4315.233396	-16.702513	-225.743423	47.582119
4315.236725	-16.760960	-223.990067	46.296322
4315.240049	-16.819405	-221.944458	45.419640
4315.243437	-16.293396	-220.307999	43.841618
4315.246766	-16.234951	-218.554657	43.081829
4315.250081	-16.059614	-217.151962	41.094685
4315.253459	-16.468733	-215.690811	40.802460
4315.256712	-16.118059	-214.171234	39.516663
4315.260077	-16.410286	-213.060776	39.458218
4315.263397	-16.176506	-211.541214	38.172417
4315.266760	-16.001169	-210.021622	36.828175
4315.270044	-16.059614	-208.911163	35.776157
4315.273382	-15.533607	-207.157791	34.957924
4315.276719	-15.066044	-205.755096	34.724144
4315.280065	-15.533607	-204.586212	33.263008
4315.283405	-15.124489	-204.177078	33.087673
4315.286744	-14.481590	-203.183517	31.977209
4315.290092	-13.897137	-202.189926	31.042084
4315.293389	-14.423145	-201.488602	30.340740
4315.296717	-14.189363	-200.553482	30.106958
4315.300045	-14.247808	-199.326126	29.113388
4315.303394	-14.715372	-199.559906	29.697842
4315.306718	-14.481590	-198.390991	28.879606
4315.310085	-13.429574	-197.455872	29.230278
4315.313407	-13.897137	-197.455872	28.061373
4315.316764	-13.838692	-196.403854	28.178263
4315.320074	-14.130919	-195.994736	27.360027
4315.323435	-14.949153	-195.527176	27.535362
4315.327144	-15.124489	-195.001160	27.301580
4315.330475	-14.773817	-195.176498	27.535362
4315.333808	-15.358271	-194.475159	27.535362
4315.337162	-14.715372	-194.124481	26.658682
4315.340497	-15.767387	-194.007599	26.308010
4315.343933	-15.592052	-193.890701	26.366455
4315.347212	-15.475161	-193.598465	25.782003
4315.350537	-16.527178	-193.598465	25.665112
4315.353823	-16.760960	-192.955582	26.249565
4315.357130	-16.936295	-193.423141	26.015783
4315.360470	-16.994740	-193.306259	26.015783
4315.363830	-16.936295	-194.007599	26.424902
4315.367152	-17.345413	-193.306259	26.132675
4315.370565	-17.053186	-194.124481	26.015783
4315.373878	-17.520748	-194.241379	25.314440
4315.377160	-17.579193	-194.592041	25.723557
4315.380464	-17.520748	-194.241379	25.606667
4315.383801	-17.286968	-193.773819	25.665112
4315.387154	-17.929867	-194.884277	25.840448
4315.390493	-17.462303	-194.533600	26.074230
4315.393881	-17.403858	-195.468719	25.139103
4315.397232	-17.520748	-195.410294	25.723557
4315.400506	-18.222094	-196.111633	25.840448
4315.403790	-17.462303	-196.345413	26.191120
4315.407135	-16.936295	-197.105194	26.424902
4315.410488	-16.994740	-197.397415	27.476917
4315.413821	-17.286968	-198.332550	26.834019
4315.417244	-16.994740	-198.683228	27.652254
4315.420533	-16.877850	-199.150787	28.587379
4315.423863	-16.936295	-200.202805	28.821161
4315.427549	-16.527178	-200.845703	28.645826
4315.430911	-16.644068	-201.254807	28.821161
4315.434299	-16.644068	-202.365295	29.288725
4315.437683	-16.936295	-203.475754	30.048513
4315.440643	-16.585623	-204.177078	31.626537
4315.444301	-16.760960	-205.053772	32.327881
4315.447600	-17.170076	-206.690231	31.801874
4315.450919	-17.170076	-207.450012	33.204563
4315.454336	-17.696085	-209.320267	34.373470
4315.457637	-17.929867	-210.547623	34.957924
4315.460974	-17.988312	-211.541214	35.425484
4315.464314	-18.105202	-212.826996	36.828175
4315.467616	-18.163647	-214.346588	37.763298
4315.470975	-18.923437	-216.450607	38.523087
4315.474386	-19.390999	-218.028625	39.633553
4315.477731	-19.624781	-219.139084	40.159561
4315.481039	-20.092344	-220.950897	40.451786
4315.484427	-20.033899	-222.645813	42.380482
4315.487736	-20.618351	-224.399170	43.549389
4315.491076	-21.378143	-225.568085	45.302750
4315.494437	-21.495033	-227.730576	46.179432
4315.497723	-22.196377	-229.425491	47.348335
4315.501128	-22.371712	-231.587952	48.283466
4315.504458	-22.722385	-234.217987	49.744598
4315.507788	-22.547049	-235.445343	51.088840
4315.511135	-23.365284	-237.432495	53.777328
4315.514508	-23.482174	-239.536530	54.829342
4315.517855	-23.599066	-241.172989	56.407368
4315.521217	-24.008183	-243.101685	58.277618
4315.524543	-24.417301	-245.614853	59.797195
4315.527884	-24.534191	-247.660431	61.609005
4315.531194	-24.358856	-250.816483	63.537704
4315.534536	-24.300409	-253.388077	64.998833
4315.538003	-24.592636	-255.550568	67.453537
4315.541342	-24.826418	-257.829926	70.492691
4315.544644	-24.417301	-260.343079	72.655182
4315.548012	-24.767971	-263.849823	74.291641
4315.551287	-24.826418	-267.064301	76.687912
4315.554653	-25.235535	-269.694336	79.960846
4315.557937	-24.358856	-272.675049	81.597321
4315.561224	-24.475746	-276.006439	84.811813
4315.564562	-25.001755	-279.104034	87.792526
4315.567895	-24.826418	-282.143219	91.766815
4315.571736	-25.060200	-285.240784	93.987732
4315.575027	-25.410870	-289.215088	97.611343
4315.578336	-25.878433	-292.663361	100.416718
4315.581625	-26.053770	-295.527191	104.975449
4315.584935	-26.579779	-299.443024	108.073059
4315.588288	-27.573349	-303.592621	112.339569
4315.591656	-27.398014	-307.040924	117.073639
4315.594952	-28.157803	-311.132111	121.398605
4315.598244	-28.683811	-314.814178	124.320862
4315.601538	-29.326710	-318.145538	128.938049
4315.604871	-30.437172	-322.236694	134.256577
4315.608242	-30.904734	-326.561676	139.575104
4315.611537	-31.255407	-330.302155	144.075394
4315.614883	-32.132088	-335.211578	148.867905
4315.618183	-33.300995	-338.893616	153.543533
4315.621532	-34.177673	-343.101685	159.855637
4315.624835	-34.762131	-347.368225	165.407944
4315.628169	-35.580360	-351.400940	171.077148
4315.631507	-36.515488	-356.135010	178.032135
4315.635276	-37.216835	-360.927521	183.467560
4315.638156	-38.268852	-365.720062	191.182343
4315.641891	-39.087082	-369.869690	198.020447
4315.645279	-39.087082	-374.369995	205.150787
4315.648559	-40.022209	-378.870239	212.164246
4315.651922	-40.372879	-383.955017	219.820572
4315.655209	-40.898888	-388.163055	227.886047
4315.658535	-41.483345	-393.481598	235.951508
4315.661901	-41.834015	-397.748108	243.432510
4315.665196	-42.126244	-401.897705	252.316193
4315.668534	-42.418468	-406.748688	261.959686
4315.671819	-43.002922	-411.775024	270.083588
4315.675186	-42.944477	-416.567505	281.305084
4315.678554	-42.827583	-421.769135	290.831665
4315.681863	-43.528931	-427.496826	301.527161
4315.685185	-43.061367	-431.120392	312.514893
4315.688548	-42.710693	-436.322021	323.619507
4315.691908	-43.412041	-441.582123	335.250153
4315.695273	-43.996490	-444.387482	347.932800
4315.698550	-44.288719	-450.115143	359.855621
4315.701860	-44.405609	-455.082977	372.655182
4315.705211	-44.405609	-459.349487	385.980713
4315.708530	-45.223846	-463.382233	399.949158
4315.711846	-45.632965	-467.064301	414.852692
4315.715197	-46.275864	-470.629456	429.113373
4315.718513	-46.392754	-474.779083	444.075378
4315.721898	-47.094101	-479.045593	458.628296
4315.725196	-48.146111	-483.838135	475.109894
4315.728488	-49.665695	-486.585052	493.286407
4315.731830	-50.016365	-489.098206	508.189941
4315.735125	-51.302162	-491.903595	525.255981
4315.738553	-53.698418	-494.358307	542.614258
4315.741872	-54.399765	-496.871429	559.504944
4315.745166	-55.627121	-498.157227	577.973694
4315.748471	-57.380478	-498.332550	595.916443
4315.751803	-58.490944	-499.618347	614.735840
4315.755190	-59.659851	-501.137939	632.737000
4315.758524	-61.354759	-501.196381	651.322632
4315.761819	-62.757454	-500.611938	670.551147
4315.765149	-63.283463	-499.326141	690.422546
4315.768467	-64.919930	-498.215668	709.475769
4315.771821	-66.030388	-496.754547	729.230286
4315.775586	-66.848625	-494.241394	748.283447
4315.778881	-67.959091	-492.078918	768.622437
4315.782191	-67.900642	-488.513763	788.552307
4315.785480	-68.835770	-484.071869	807.722412
4315.788809	-69.186447	-479.220917	827.476929
4315.792090	-68.601990	-471.681488	849.277039
4315.795486	-68.251320	-466.596741	868.330200
4315.798760	-67.900642	-460.050873	888.084717
4315.802074	-67.082405	-452.102295	907.488586
4315.805386	-66.381058	-444.329071	926.015808
4315.808687	-65.095261	-435.503815	944.893677
4315.812006	-63.926361	-425.977234	963.654541
4315.815302	-62.699005	-415.690857	982.532410
4315.818751	-61.354759	-405.521332	998.780273
4315.822062	-60.711861	-393.540039	1016.255432
4315.825365	-59.192284	-380.798950	1033.029297
4315.828700	-57.789597	-368.408539	1047.289917
4315.832044	-56.211571	-354.031006	1062.544189
4315.835328	-54.750443	-340.120972	1076.454102
4315.838704	-54.341324	-324.632965	1089.195190
4315.842006	-53.289307	-308.618958	1102.696167
4315.845385	-52.120399	-291.962036	1113.567017
4315.848680	-51.886612	-274.779083	1123.093628
4315.852027	-50.776154	-257.245483	1132.620117
4315.855289	-50.425484	-239.244308	1140.568726
4315.858669	-50.074814	-222.178253	1147.640625
4315.862037	-49.548805	-202.014603	1152.959106
4315.865327	-49.548805	-182.552307	1159.797241
4315.868656	-49.490356	-161.979538	1162.836426
4315.872020	-49.548805	-142.341904	1164.765015
4315.875340	-49.548805	-122.353600	1167.336792
4315.878739	-49.490356	-100.670364	1168.797852
4315.882057	-50.074814	-80.682060	1167.687378
4315.885361	-50.074814	-58.998833	1166.460083
4315.888715	-49.665695	-37.724720	1164.239136
4315.892050	-50.133255	-16.099939	1160.381714
4315.895335	-49.724136	6.343075	1156.056763
4315.898686	-50.191704	26.857395	1151.088867
4315.902009	-49.139687	47.547050	1144.133911
4315.905375	-48.613678	68.470482	1135.717773
4315.908688	-47.970779	89.043251	1128.704346
4315.911993	-46.684982	109.674461	1119.879028
4315.915360	-45.574516	129.896561	1110.118652
4315.918667	-43.938049	149.651093	1099.715454
4315.922084	-42.360023	169.405624	1087.675659
4315.925423	-40.489773	188.049683	1076.103516
4315.928707	-38.444183	206.752197	1062.836426
4315.932074	-36.515488	225.279373	1050.329102
4315.935407	-34.645237	241.760956	1036.360596
4315.938695	-32.073639	258.476318	1023.911804
4315.942071	-30.086500	274.607239	1006.728760
4315.945357	-27.924021	290.504395	991.649963
4315.948729	-26.112217	305.933960	976.687927
4315.952039	-23.832848	319.902405	959.797241
4315.955366	-21.319696	333.461700	943.724731
4315.958660	-19.157219	346.495026	927.126221
4315.962036	-17.403858	359.352997	911.053772
4315.965356	-15.475161	371.334290	893.578674
4315.968668	-13.137347	382.029785	876.921692
4315.972420	-11.909994	392.608398	859.797241
4315.975727	-10.331970	401.842773	843.549377
4315.979074	-9.046172	411.077118	825.782043
4315.982410	-8.929281	419.317902	809.183533
4315.985726	-8.461719	427.032715	791.299255
4315.989052	-7.292812	433.812378	774.525452
4315.992383	-7.117476	440.592041	757.926941
4315.995682	-7.000585	446.494995	741.153137
4315.999012	-6.825249	452.865540	723.911743
4316.002306	-7.117476	456.489166	707.313293
4316.005675	-6.942140	461.106354	691.182373
4316.008996	-7.000585	465.255981	674.934570
4316.012291	-8.111047	467.593811	658.686707
4316.015634	-7.059031	470.574524	642.438904
4316.018928	-7.351257	472.035645	626.366455
4316.022258	-7.526593	474.431885	611.521301
4316.025555	-7.526593	475.542358	596.208679
4316.029294	-7.818820	476.126801	581.831116
4316.032886	-7.877265	477.354187	567.628906
4316.036220	-7.117476	477.061951	552.842224
4316.039551	-7.059031	477.003479	537.763306
4316.042883	-6.883694	476.243683	525.080688
4316.046219	-6.883694	475.542358	510.352417
4316.049553	-6.007014	474.373444	497.377563
4316.052883	-5.364115	473.087646	484.168884
4316.056216	-5.130334	471.743378	470.200470
4316.059548	-4.487434	470.340729	458.160706
4316.062883	-3.318528	468.295135	446.179413
4316.066232	-2.383402	466.717102	433.847473
4316.069549	-1.448277	463.502655	422.392151
4316.072883	-0.279369	461.281677	411.579773
4316.076215	-0.104033	458.534760	400.767395
4316.079550	0.947983	455.963165	389.370544
4316.082873	1.240210	452.573334	379.025696
4316.086209	2.116890	449.592621	369.732910
4316.089581	2.818233	446.202789	359.446533
4316.092877	4.045588	443.748077	350.036804
4316.096215	4.922268	440.475128	340.627136
4316.099547	5.097603	436.500885	331.275848
4316.102880	5.565166	432.234344	323.677979
4316.106213	5.214495	430.013428	315.086487
4316.109564	6.149620	425.980713	306.436584
4316.112872	6.091173	421.831085	299.072449
4316.116208	5.974283	417.739899	290.422577
4316.119547	6.441847	414.583862	282.649323
4316.122875	6.032728	410.726440	275.752777
4316.126211	5.740501	406.985962	268.914673
4316.129540	5.623611	403.420776	261.901215
4316.132874	5.272940	399.738739	255.063110
4316.136205	5.156048	395.998230	248.751022
4316.139534	4.104033	393.075958	243.432510
4316.142875	4.513149	389.569244	237.178833
4316.146226	4.513149	385.361206	231.860306
4316.149539	3.987143	381.679138	225.957336
4316.152888	3.519579	378.289307	220.229675
4316.156211	3.578024	374.373444	213.917603
4316.159544	2.993570	371.275848	209.125076
4316.162875	2.584453	367.769135	204.858566
4316.166202	2.642898	364.379303	199.014023
4316.169539	2.292226	361.807709	195.039749
