time (s)	magX	magY	magZ
4675.139425	-43.178257	359.820557	228.996490
4675.142825	-44.580948	363.151947	236.068375
4675.146094	-45.223846	366.483337	243.198715
4675.149446	-46.568092	370.516052	250.212158
4675.152734	-47.503212	374.198120	257.342499
4675.156090	-48.321449	377.880157	265.349518
4675.159460	-49.198128	381.153107	273.590302
4675.162771	-50.600815	384.776733	282.240204
4675.166074	-52.354179	387.991211	290.364105
4675.169365	-54.165985	390.855042	300.066040
4675.172700	-55.276451	394.537109	308.657501
4675.176130	-56.620689	397.693146	318.008759
4675.179431	-57.906487	400.966064	327.886047
4675.182741	-59.426064	404.122162	338.172424
4675.186080	-61.004089	406.576813	348.692566
4675.189398	-62.523666	409.206879	359.914093
4675.192741	-64.569260	411.720032	370.609589
4675.196057	-65.679718	413.999420	383.233795
4675.199406	-67.783752	416.103455	394.338409
4675.202765	-70.004677	418.558167	406.670349
4675.206502	-71.816483	419.668610	419.060791
4675.209860	-73.920509	421.071289	432.210999
4675.213202	-75.966103	422.181732	445.478088
4675.216963	-78.303917	422.649323	459.212769
4675.220294	-80.115723	423.467529	473.181183
4675.223623	-81.284630	423.584473	488.143188
4675.226958	-83.271767	423.233795	502.812988
4675.230295	-85.551132	422.298676	518.534790
4675.233629	-87.246056	421.889557	532.912354
4675.236981	-89.116302	419.551697	547.523682
4675.240293	-91.103447	418.207458	564.414368
4675.243627	-92.447693	414.934540	579.142578
4675.246961	-94.843956	411.836914	595.916443
4675.250292	-96.363533	408.680878	611.579773
4675.253625	-98.175331	405.583282	626.366455
4675.256958	-99.461128	400.440063	642.789612
4675.260311	-101.331383	395.296875	659.563416
4675.263622	-102.850960	389.686127	674.992981
4675.266962	-104.955002	384.601410	691.299255
4675.270295	-106.533020	377.587952	706.261230
4675.273625	-108.695503	370.223816	721.573975
4675.276956	-110.507301	362.859711	736.711304
4675.280290	-111.909988	353.976044	752.842224
4675.283627	-114.072479	344.683228	767.336609
4675.286952	-115.650497	335.624207	784.344238
4675.290293	-117.871414	324.870239	799.832275
4675.293620	-119.800110	314.233185	814.151428
4675.296955	-121.378136	301.901215	828.295166
4675.300283	-123.423729	289.803040	843.315613
4675.303640	-125.644646	277.295746	857.751587
4675.306951	-127.105782	263.794861	870.609619
4675.310282	-129.443604	249.300415	884.636414
4675.313615	-131.021622	235.273514	897.202209
4675.316958	-133.885452	220.311508	910.995300
4675.320284	-135.463486	204.881943	922.801208
4675.323617	-137.625946	188.283463	934.841003
4675.326952	-139.437759	170.925186	945.010498
4675.330284	-141.308014	153.625366	955.238464
4675.333615	-142.593811	135.273529	965.641724
4675.336948	-144.054947	115.986557	975.051453
4675.340286	-145.048523	97.342484	984.110474
4675.343615	-146.509659	78.289299	991.533020
4675.346962	-148.263000	58.593224	997.143799
4675.350283	-148.555237	38.780247	1002.696045
4675.353611	-149.256577	19.084162	1008.365295
4675.356943	-149.782593	-0.611922	1011.287537
4675.360278	-150.659271	-21.126242	1014.560425
4675.363609	-150.776169	-40.997658	1016.372314
4675.366952	-150.191711	-60.927525	1016.956726
4675.370699	-150.016373	-80.798950	1017.015198
4675.374035	-149.665695	-100.085915	1016.606079
4675.377366	-148.672119	-119.665115	1012.982483
4675.380710	-147.853897	-138.192276	1010.527710
4675.384068	-147.561661	-156.719452	1006.728760
4675.387366	-146.392761	-174.369949	1001.176453
4675.390709	-144.639404	-192.078903	995.448914
4675.394061	-143.353592	-208.911163	988.318542
4675.397395	-142.476929	-224.632965	980.720642
4675.400730	-140.723557	-240.179428	971.836975
4675.404111	-139.145538	-255.258331	961.901245
4675.407363	-137.684402	-270.161896	952.374695
4675.410698	-136.398605	-283.487427	939.925781
4675.414036	-135.054352	-297.514313	928.061340
4675.417365	-133.184097	-309.554077	917.424316
4675.420714	-131.138519	-322.412048	903.864990
4675.424039	-130.086502	-333.282867	890.890137
4675.427398	-128.099365	-343.744598	876.512573
4675.430720	-126.404442	-354.089417	862.134949
4675.434069	-124.884865	-363.440674	846.997681
4675.437393	-123.073051	-373.025726	832.152588
4675.440710	-121.670364	-380.857391	816.021667
4675.444027	-120.092346	-388.689087	800.533630
4675.447793	-117.929863	-395.819397	783.058411
4675.451127	-116.293396	-402.482178	766.927490
4675.454482	-114.481590	-408.443604	750.679687
4675.457813	-113.078903	-413.236145	733.613647
4675.461247	-111.617767	-418.905304	717.015198
4675.464526	-109.922852	-422.938049	699.598511
4675.467790	-107.935707	-426.561676	682.415588
4675.471160	-105.247223	-430.243744	664.881897
4675.474451	-103.435417	-432.523102	647.699036
4675.477816	-101.331383	-435.386902	630.516052
4675.481145	-99.402687	-436.964935	613.216248
4675.484525	-96.831093	-438.016937	596.150208
4675.487856	-94.610168	-438.952057	579.493286
4675.491186	-92.447693	-438.776733	561.784363
4675.494448	-89.934540	-439.127411	545.302734
4675.497781	-87.830505	-439.127411	529.230286
4675.501116	-85.901810	-438.075409	513.450073
4675.504472	-83.680885	-437.081818	498.312683
4675.507822	-81.226181	-435.328491	482.298645
4675.511206	-78.596146	-433.808899	466.167725
4675.514563	-77.076561	-431.295746	452.140839
4675.517775	-75.732323	-429.250153	437.354156
4675.521124	-73.043839	-427.146088	423.561066
4675.524897	-71.407364	-424.282318	410.001740
4675.528286	-69.361778	-421.301605	397.962006
4675.531640	-67.374634	-417.794861	384.344238
4675.534529	-65.329048	-414.697266	372.538300
4675.538294	-64.043251	-410.722961	360.907654
4675.541623	-61.705437	-407.859131	349.510834
4675.544966	-60.010521	-404.001770	337.997070
4675.548375	-58.374054	-400.962585	327.067780
4675.551681	-56.971359	-396.871429	317.774994
4675.555002	-55.451782	-392.955597	307.430145
4675.558341	-54.165985	-388.922852	298.195801
4675.561669	-52.938629	-385.357697	289.078308
4675.564959	-51.419052	-381.208069	279.434845
4675.568315	-50.600815	-377.233795	270.901794
4675.571655	-49.607246	-372.850403	262.076569
4675.575011	-48.087669	-369.226776	253.660431
4675.578306	-47.327881	-365.486267	245.945648
4675.581647	-46.042084	-360.927521	238.347748
4675.584954	-44.756279	-355.959686	230.048523
4675.588346	-44.288719	-351.868500	223.794846
4675.591720	-42.652252	-348.186432	215.846283
4675.595050	-42.067795	-343.510834	209.300400
4675.598367	-41.132671	-340.296326	201.059616
4675.601742	-40.139099	-335.503815	194.981293
4675.605062	-39.496201	-331.412628	188.552307
4675.608419	-38.444183	-327.204559	182.590881
4675.611742	-37.450615	-323.522522	176.045013
4675.615045	-36.749268	-318.554657	169.908249
4675.618342	-35.463470	-314.814178	164.706604
4675.621695	-34.528347	-310.839874	159.037399
4675.625002	-34.469902	-307.099365	154.654007
4675.628349	-33.184105	-303.125061	148.751022
4675.631684	-32.424313	-299.618378	143.666275
4675.635061	-31.372297	-295.410309	138.698425
4675.638387	-30.554062	-291.845123	135.191696
4675.641723	-30.028055	-287.812408	129.522507
4675.645531	-29.385157	-284.597900	124.729996
4675.648423	-28.566919	-281.558746	121.983047
4675.652165	-27.807131	-278.344238	118.242554
4675.655481	-26.872005	-273.843964	113.157806
4675.658796	-26.404442	-270.980133	111.053772
4675.662148	-25.703098	-268.583862	107.137939
4675.665433	-25.118645	-265.252502	104.098770
4675.668777	-24.417301	-262.739349	101.059616
4675.672097	-24.358856	-259.524841	98.663361
4675.675396	-23.540619	-256.836365	95.857986
4675.678715	-23.248394	-254.206314	92.994156
4675.681994	-22.313267	-251.517838	90.539459
4675.685372	-21.787258	-248.887787	88.026306
4675.688676	-21.202806	-246.374649	86.039154
4675.692035	-20.910580	-244.212158	83.701340
4675.695345	-21.027470	-241.698990	81.305084
4675.699112	-20.326126	-239.536530	79.902390
4675.702471	-20.793688	-237.666290	77.798370
4675.705776	-19.858562	-235.328445	76.220337
4675.709104	-19.858562	-233.224426	73.648743
4675.712417	-18.748100	-230.652817	71.369385
4675.715751	-19.741673	-228.315002	70.609589
4675.719075	-18.923437	-226.678543	68.388664
4675.722420	-18.514320	-224.983627	66.518417
4675.725803	-18.105202	-223.171814	65.174171
4675.729077	-17.871420	-221.243134	62.836361
4675.732375	-17.228521	-219.314438	61.550556
4675.735697	-17.520748	-217.561066	59.563416
4675.739038	-16.994740	-214.755692	58.219173
4675.742476	-16.702513	-213.411453	56.582703
4675.745780	-16.585623	-211.541214	55.472240
4675.749076	-16.001169	-209.963165	54.946232
4675.752438	-15.708942	-208.326706	53.075981
4675.755774	-15.767387	-206.748688	52.666866
4675.759094	-16.001169	-205.404434	50.971951
4675.762394	-14.949153	-203.358856	49.803043
4675.765757	-15.124489	-202.189926	49.101700
4675.769139	-15.007598	-200.962601	47.348335
4675.772425	-14.832262	-199.852127	45.536533
4675.776185	-13.721801	-197.923431	45.361195
4675.779547	-13.897137	-196.579193	44.075397
4675.782837	-13.078901	-195.410294	42.789600
4675.786147	-12.962011	-194.299820	42.964935
4675.789446	-12.202221	-193.072479	42.263592
4675.792834	-12.728230	-191.903564	40.744015
4675.796132	-12.085331	-191.494446	39.867332
4675.799428	-12.085331	-190.851547	40.101116
4675.802818	-11.909994	-190.208649	39.458218
4675.806093	-11.734658	-189.039749	39.516663
4675.809462	-10.916424	-188.572174	38.172417
4675.812758	-11.559322	-187.461716	38.581535
4675.816093	-10.741087	-186.409698	37.178848
4675.819362	-11.091760	-186.000580	36.828175
4675.822728	-10.507306	-185.533020	36.828175
4675.826124	-10.507306	-184.597900	36.652840
4675.829433	-10.039743	-184.539444	36.594391
4675.833198	-10.098188	-184.013443	36.828175
4675.836904	-9.981298	-183.721207	36.302166
4675.840235	-9.864407	-183.195206	36.419056
4675.843562	-9.922853	-183.312088	35.717712
4675.846902	-10.156634	-182.902985	36.068382
4675.850231	-10.273525	-182.552307	35.308594
4675.853566	-9.981298	-182.318512	35.425484
4675.856905	-10.448860	-182.026291	34.957924
4675.860233	-9.747517	-181.792511	35.133259
4675.863569	-9.747517	-182.552307	34.431915
4675.866930	-9.689072	-181.558731	34.724144
4675.870254	-9.396845	-181.500290	34.315025
4675.873568	-9.572181	-181.558731	33.730572
4675.876897	-9.104618	-181.792511	33.204563
4675.880230	-9.338399	-181.734070	33.847462
4675.883565	-8.812391	-181.617172	33.905907
4675.886893	-8.812391	-181.208054	34.315025
4675.890224	-8.052601	-181.500290	34.256577
4675.893599	-8.169493	-181.383392	33.964352
4675.896891	-8.695499	-181.850952	33.847462
4675.900231	-8.286383	-181.617172	33.905907
4675.903561	-7.818820	-181.792511	34.022797
4675.906890	-7.526593	-182.084732	34.139687
4675.910227	-7.818820	-182.201630	34.724144
4675.913558	-6.942140	-182.844528	34.373470
4675.916895	-7.175921	-183.545868	34.957924
4675.920224	-7.175921	-184.071884	35.308594
4675.923560	-7.000585	-184.247223	35.367043
4675.926888	-6.766803	-185.007004	35.834602
4675.930224	-6.825249	-185.007004	36.828175
4675.933554	-6.825249	-185.883682	37.178848
4675.936958	-6.649913	-186.643478	37.237289
4675.940227	-6.533022	-187.286377	38.230862
4675.943563	-6.240795	-188.221497	38.347752
4675.946892	-6.649913	-188.572174	38.523087
4675.950226	-5.948569	-189.974869	39.165993
4675.953552	-6.182350	-191.085327	40.159561
4675.956888	-6.240795	-192.254227	41.094685
4675.960220	-6.416131	-192.780243	41.912922
4675.963551	-6.299241	-194.416718	42.322037
4675.966884	-5.656342	-195.644073	43.140274
4675.970221	-5.539451	-196.228516	44.250732
4675.973556	-6.007014	-198.098770	44.893635
4675.976889	-5.831678	-198.858551	45.945648
4675.980253	-5.773232	-200.378143	46.939220
4675.983556	-5.539451	-201.839264	47.523674
4675.986890	-5.831678	-203.417282	48.926365
4675.990692	-5.597897	-204.819977	50.212162
4675.993999	-5.597897	-206.047333	51.497959
4675.997394	-5.481006	-207.508484	52.783756
4676.000661	-5.422561	-208.735809	53.368210
4676.003999	-5.188779	-210.255402	54.478672
4676.007307	-5.071888	-212.534775	55.706024
4676.010648	-5.071888	-213.411453	56.641148
4676.013978	-4.487434	-214.989487	57.693165
4676.017320	-4.838106	-217.151962	59.446526
4676.020643	-4.545879	-219.372879	62.076569
4676.024030	-4.019872	-220.366440	62.602577
4676.027353	-3.902981	-222.002914	63.888374
4676.030697	-3.902981	-224.399170	64.589722
4676.034026	-3.902981	-225.568085	66.284630
4676.037357	-3.669200	-228.315002	68.037994
4676.040641	-3.260082	-230.068390	70.083580
4676.043975	-3.084746	-232.172409	71.486267
4676.047298	-2.967855	-234.685547	73.298080
4676.050638	-2.909410	-236.088242	75.577438
4676.053970	-2.558738	-238.542953	77.272354
4676.057302	-2.149620	-240.471664	80.136185
4676.060645	-1.857393	-243.043243	81.188202
4676.063990	-1.448277	-245.556381	83.993576
4676.067349	-1.448277	-248.303329	87.149628
4676.070727	-1.214495	-250.874908	90.130341
4676.074394	-0.513150	-253.914078	92.468155
4676.077724	-0.104033	-256.894806	96.091766
4676.081061	0.012857	-260.518402	98.838699
4676.084417	0.480420	-262.914673	102.579193
4676.087746	0.188193	-265.836945	105.910583
4676.091139	0.772647	-268.934570	109.183517
4676.094455	1.123319	-272.207489	112.105789
4676.097779	1.707772	-276.240234	116.021637
4676.101047	1.649327	-279.162476	120.288147
4676.104391	1.941554	-282.201660	124.496201
4676.107725	2.175335	-285.591492	128.821152
4676.111095	1.824663	-289.156647	133.029221
4676.114416	1.941554	-292.721832	137.763290
4676.117803	1.941554	-295.351837	143.198715
4676.121153	2.584453	-299.793701	147.757446
4676.124390	3.227352	-303.768005	151.731735
4676.127721	3.519579	-307.391602	157.225601
4676.131061	4.337814	-310.839874	163.011688
4676.134435	3.636471	-314.112823	167.687317
4676.137749	4.630041	-317.561066	173.122742
4676.141168	4.922268	-321.301575	179.201050
4676.144519	6.032728	-324.632965	185.220932
4676.147799	6.558737	-329.191711	190.481003
4676.151477	6.558737	-332.639984	197.202225
4676.154873	7.026299	-336.731171	203.689651
4676.158236	7.902981	-340.471680	209.592636
4676.161573	8.779661	-344.387512	216.196945
4676.164907	9.481005	-348.186432	224.262405
4676.168215	9.831676	-352.043854	230.457626
4676.171512	10.240795	-355.492126	238.406189
4676.174846	11.526592	-358.881958	246.120987
4676.178288	12.052601	-363.148468	254.595551
4676.181603	12.637054	-367.064301	262.368774
4676.184911	13.163063	-370.571014	271.486267
4676.188236	14.624195	-374.019287	280.895966
4676.191562	15.734657	-378.694916	289.662781
4676.194859	16.728228	-382.026306	300.124481
4676.198219	17.488018	-385.708344	310.936890
4676.201561	18.832262	-389.624207	321.457031
4676.204940	19.708944	-392.780243	332.795441
4676.208251	20.644068	-396.812988	344.016937
4676.211575	21.579195	-400.027466	355.647583
4676.214859	22.338984	-403.125092	367.453522
4676.218251	23.507891	-407.099335	380.136200
4676.221614	24.267679	-409.670990	393.286377
4676.224910	25.261251	-412.827026	407.722412
4676.228220	26.839273	-415.164795	420.989502
4676.231602	27.657507	-418.028656	435.250183
4676.234909	28.125074	-419.898895	449.978394
4676.238284	29.703096	-421.886078	464.765045
4676.241590	31.105787	-424.106995	480.253052
4676.245345	31.748686	-425.334320	496.383972
4676.248640	33.092926	-426.970764	512.164246
4676.251987	34.437172	-427.847473	528.236694
4676.255329	35.547630	-428.490356	543.900024
4676.258655	36.950317	-428.315033	560.615417
4676.261965	38.002335	-427.789032	576.337219
4676.265273	39.521912	-427.847473	591.942139
4676.268577	40.690819	-426.795441	608.949768
4676.271868	42.210403	-425.275848	625.314453
4676.275224	43.379311	-423.580933	643.549377
4676.278543	45.249565	-421.184692	659.797180
4676.281865	47.178253	-418.028656	675.518982
4676.285171	48.697838	-415.223267	692.760376
4676.288926	50.334305	-411.190552	709.534180
4676.292300	51.620110	-407.917603	725.606689
4676.295596	53.373466	-403.008179	742.029785
4676.298904	55.126831	-397.572784	758.277649
4676.302281	57.347755	-391.962036	774.583862
4676.305577	58.458214	-385.708344	791.591492
4676.308896	60.386909	-378.811829	807.079468
4676.312263	61.789597	-371.330811	822.801208
4676.315552	63.893631	-362.797791	838.990601
4676.318935	65.413208	-353.154297	853.543518
4676.322271	66.465225	-344.270599	869.031555
4676.325585	68.218582	-333.516663	883.350708
4676.328877	69.562828	-323.171844	898.078857
4676.332246	71.199303	-312.125671	911.521362
4676.335597	72.134422	-299.676788	925.548218
4676.338930	73.478668	-287.286407	938.055542
4676.342241	74.647575	-273.551727	949.393860
4676.345616	75.641144	-260.343079	961.492065
4676.348919	75.874924	-244.679718	973.531860
4676.352265	77.277611	-230.068390	983.292236
4676.355992	78.271187	-214.463455	991.883667
4676.359316	78.446526	-198.215668	999.247742
4676.362668	78.680305	-181.091171	1007.021057
4676.365963	80.141441	-163.440674	1012.339539
4676.369406	79.790764	-146.257751	1017.307434
4676.372703	79.732323	-128.139694	1021.632385
4676.376027	79.907654	-109.086494	1025.372925
4676.379363	79.673874	-90.676216	1027.301514
4676.382699	79.732323	-71.798363	1028.470459
4676.385996	80.082993	-53.037403	1027.944580
4676.389403	79.147873	-34.568672	1027.009399
4676.392736	79.498543	-15.807713	1025.957397
4676.396056	78.972534	3.771480	1022.158386
4676.399367	78.037407	22.649328	1018.710083
4676.402686	77.920517	40.767391	1013.040955
4676.406024	77.862068	59.411457	1008.657471
4676.409328	77.102280	77.938629	1001.819458
4676.412757	76.517830	95.180008	995.565735
4676.416056	75.991814	112.713615	987.617126
4676.419386	74.998253	129.779663	979.201050
4676.422752	75.173584	146.728821	971.018738
4676.426086	74.296906	163.736420	959.855652
4676.429398	73.420219	179.867325	949.452332
4676.432758	72.601990	195.296906	939.224487
4676.436092	71.316193	210.901825	926.658630
4676.439406	70.731735	225.980728	914.618896
4676.442709	69.855057	239.890701	901.819458
4676.446037	68.686150	253.566925	889.487366
4676.449797	67.108124	266.892456	876.220337
4676.453503	66.523674	279.691986	862.193420
4676.456840	65.004097	291.907074	847.757446
4676.460169	63.601402	304.472809	833.263062
4676.463507	61.789597	315.694336	818.534790
4676.466839	60.445358	326.974274	804.274109
4676.470202	59.042664	337.260651	789.136780
4676.473505	57.756866	346.787262	772.947388
4676.476838	55.769722	356.489166	758.102234
4676.480206	54.133255	365.372864	741.971375
4676.483502	52.613678	373.379883	726.717102
4676.486837	50.977203	380.627106	710.878479
4676.490173	48.639389	388.108124	694.747498
4676.493498	46.827583	394.186432	679.434875
4676.496837	45.015785	399.563416	662.485657
4676.500169	44.022209	405.057281	647.114563
4676.503497	42.268845	409.499115	631.743408
4676.506836	40.340149	413.356506	616.080078
4676.510167	38.995911	417.330780	600.592102
4676.513501	37.242546	420.194611	585.337830
4676.516832	35.547630	422.824677	569.732910
4676.520163	33.794273	425.162445	555.121521
4676.523517	32.450027	426.331390	541.211609
4676.526826	31.573347	427.500305	526.833984
4676.530162	29.936880	428.318512	512.982483
4676.533506	28.884863	428.376953	499.364685
4676.536835	27.949739	428.786072	486.331390
4676.540162	26.605494	428.727631	473.181183
4676.543499	25.436586	428.260101	460.498566
4676.546827	24.735243	427.208038	448.634125
4676.550161	23.975451	426.331390	436.243713
4676.553500	22.455873	425.104034	425.080658
4676.556827	22.280539	423.584473	413.040894
4676.560157	20.936296	421.714203	402.111633
4676.563495	19.884279	419.317902	391.649933
4676.566852	18.832262	417.681458	380.311523
4676.570158	18.306252	415.226746	370.609589
4676.573489	17.429571	412.947357	359.563416
4676.576823	16.552893	409.732910	349.510834
4676.580155	15.559320	407.336609	340.393341
4676.583496	15.150204	404.881958	331.100525
4676.586825	14.039743	401.316772	322.333710
4676.590161	13.279953	398.277618	313.333130
4676.593489	12.695499	395.413788	304.157227
4676.596843	12.052601	391.965515	296.208649
4676.600584	11.409700	388.867889	287.208069
4676.603927	9.948568	385.419617	279.434845
4676.607253	9.305670	381.562225	272.304504
4676.610608	8.545879	378.581512	263.420807
4676.613914	7.961426	374.724121	256.758026
4676.617251	7.260080	371.743408	248.751022
4676.620586	6.617182	367.886017	242.029816
4676.623906	5.623611	364.262421	234.665680
